time_s,ecg_MLII,ecg_V5
0.0,-0.145,-0.065
0.002777777777777778,-0.145,-0.065
0.005555555555555556,-0.145,-0.065
0.008333333333333333,-0.145,-0.065
0.011111111111111112,-0.145,-0.065
0.013888888888888888,-0.145,-0.065
0.016666666666666666,-0.145,-0.065
0.019444444444444445,-0.145,-0.065
0.022222222222222223,-0.12,-0.08
0.025,-0.135,-0.08
0.027777777777777776,-0.145,-0.085
0.030555555555555555,-0.15,-0.085
0.03333333333333333,-0.16,-0.075
0.03611111111111111,-0.155,-0.07
0.03888888888888889,-0.16,-0.07
0.041666666666666664,-0.175,-0.065
0.044444444444444446,-0.18,-0.055
0.04722222222222222,-0.185,-0.05
0.05,-0.17,-0.05
0.05277777777777778,-0.155,-0.04
0.05555555555555555,-0.175,-0.04
0.058333333333333334,-0.18,-0.055
0.06111111111111111,-0.19,-0.075
0.06388888888888888,-0.18,-0.08
0.06666666666666667,-0.155,-0.085
0.06944444444444445,-0.135,-0.07
0.07222222222222222,-0.155,-0.08
0.075,-0.19,-0.08
0.07777777777777778,-0.205,-0.09
0.08055555555555556,-0.235,-0.095
0.08333333333333333,-0.225,-0.09
0.08611111111111111,-0.245,-0.095
0.08888888888888889,-0.25,-0.11
0.09166666666666666,-0.26,-0.12
0.09444444444444444,-0.275,-0.145
0.09722222222222222,-0.275,-0.135
0.1,-0.275,-0.105
0.10277777777777777,-0.265,-0.095
0.10555555555555556,-0.255,-0.105
0.10833333333333334,-0.265,-0.12
0.1111111111111111,-0.275,-0.135
0.11388888888888889,-0.29,-0.125
0.11666666666666667,-0.29,-0.125
0.11944444444444445,-0.29,-0.115
0.12222222222222222,-0.29,-0.115
0.125,-0.285,-0.125
0.12777777777777777,-0.295,-0.14
0.13055555555555556,-0.305,-0.14
0.13333333333333333,-0.285,-0.13
0.1361111111111111,-0.275,-0.125
0.1388888888888889,-0.275,-0.14
0.14166666666666666,-0.28,-0.145
0.14444444444444443,-0.285,-0.15
0.14722222222222223,-0.305,-0.15
0.15,-0.29,-0.13
0.1527777777777778,-0.3,-0.115
0.15555555555555556,-0.28,-0.125
0.15833333333333333,-0.29,-0.135
0.16111111111111112,-0.3,-0.16
0.1638888888888889,-0.315,-0.195
0.16666666666666666,-0.32,-0.2
0.16944444444444445,-0.335,-0.205
0.17222222222222222,-0.36,-0.225
0.175,-0.385,-0.255
0.17777777777777778,-0.385,-0.3
0.18055555555555555,-0.405,-0.29
0.18333333333333332,-0.455,-0.235
0.18611111111111112,-0.485,-0.13
0.18888888888888888,-0.485,-0.035
0.19166666666666668,-0.425,0.05
0.19444444444444445,-0.33,0.12
0.19722222222222222,-0.22,0.2
0.2,-0.07,0.31
0.20277777777777778,0.12,0.435
0.20555555555555555,0.375,0.535
0.20833333333333334,0.62,0.58
0.2111111111111111,0.78,0.475
0.21388888888888888,0.84,0.21
0.21666666666666667,0.765,-0.085
0.21944444444444444,0.52,-0.23
0.2222222222222222,0.17,-0.25
0.225,-0.165,-0.215
0.22777777777777777,-0.365,-0.18
0.23055555555555557,-0.435,-0.185
0.23333333333333334,-0.425,-0.16
0.2361111111111111,-0.37,-0.15
0.2388888888888889,-0.33,-0.15
0.24166666666666667,-0.325,-0.18
0.24444444444444444,-0.335,-0.18
0.24722222222222223,-0.345,-0.16
0.25,-0.33,-0.165
0.25277777777777777,-0.325,-0.17
0.25555555555555554,-0.315,-0.165
0.25833333333333336,-0.31,-0.185
0.2611111111111111,-0.32,-0.185
0.2638888888888889,-0.335,-0.185
0.26666666666666666,-0.34,-0.17
0.26944444444444443,-0.325,-0.16
0.2722222222222222,-0.345,-0.155
0.275,-0.335,-0.175
0.2777777777777778,-0.33,-0.195
0.28055555555555556,-0.335,-0.185
0.2833333333333333,-0.33,-0.185
0.2861111111111111,-0.325,-0.175
0.28888888888888886,-0.33,-0.175
0.2916666666666667,-0.33,-0.195
0.29444444444444445,-0.345,-0.19
0.2972222222222222,-0.355,-0.18
0.3,-0.335,-0.165
0.30277777777777776,-0.325,-0.17
0.3055555555555556,-0.305,-0.17
0.30833333333333335,-0.32,-0.17
0.3111111111111111,-0.32,-0.19
0.3138888888888889,-0.33,-0.185
0.31666666666666665,-0.34,-0.18
0.3194444444444444,-0.335,-0.17
0.32222222222222224,-0.34,-0.175
0.325,-0.345,-0.19
0.3277777777777778,-0.355,-0.2
0.33055555555555555,-0.355,-0.195
0.3333333333333333,-0.34,-0.185
0.33611111111111114,-0.33,-0.17
0.3388888888888889,-0.33,-0.17
0.3416666666666667,-0.33,-0.185
0.34444444444444444,-0.34,-0.195
0.3472222222222222,-0.35,-0.175
0.35,-0.325,-0.2
0.3527777777777778,-0.325,-0.185
0.35555555555555557,-0.33,-0.18
0.35833333333333334,-0.33,-0.185
0.3611111111111111,-0.335,-0.205
0.3638888888888889,-0.335,-0.19
0.36666666666666664,-0.34,-0.18
0.36944444444444446,-0.33,-0.185
0.37222222222222223,-0.34,-0.2
0.375,-0.35,-0.215
0.37777777777777777,-0.355,-0.205
0.38055555555555554,-0.35,-0.21
0.38333333333333336,-0.345,-0.2
0.3861111111111111,-0.33,-0.185
0.3888888888888889,-0.32,-0.205
0.39166666666666666,-0.335,-0.2
0.39444444444444443,-0.33,-0.21
0.3972222222222222,-0.345,-0.205
0.4,-0.33,-0.185
0.4027777777777778,-0.335,-0.185
0.40555555555555556,-0.335,-0.2
0.4083333333333333,-0.345,-0.215
0.4111111111111111,-0.345,-0.225
0.41388888888888886,-0.355,-0.22
0.4166666666666667,-0.34,-0.2
0.41944444444444445,-0.34,-0.2
0.4222222222222222,-0.335,-0.215
0.425,-0.33,-0.225
0.42777777777777776,-0.35,-0.235
0.4305555555555556,-0.35,-0.245
0.43333333333333335,-0.345,-0.24
0.4361111111111111,-0.335,-0.24
0.4388888888888889,-0.335,-0.24
0.44166666666666665,-0.335,-0.245
0.4444444444444444,-0.35,-0.26
0.44722222222222224,-0.355,-0.26
0.45,-0.355,-0.265
0.4527777777777778,-0.345,-0.265
0.45555555555555555,-0.345,-0.28
0.4583333333333333,-0.335,-0.285
0.46111111111111114,-0.35,-0.295
0.4638888888888889,-0.36,-0.295
0.4666666666666667,-0.36,-0.3
0.46944444444444444,-0.36,-0.29
0.4722222222222222,-0.365,-0.3
0.475,-0.36,-0.315
0.4777777777777778,-0.37,-0.315
0.48055555555555557,-0.385,-0.315
0.48333333333333334,-0.37,-0.315
0.4861111111111111,-0.36,-0.31
0.4888888888888889,-0.355,-0.31
0.49166666666666664,-0.36,-0.325
0.49444444444444446,-0.375,-0.33
0.49722222222222223,-0.375,-0.325
0.5,-0.365,-0.315
0.5027777777777778,-0.365,-0.305
0.5055555555555555,-0.36,-0.305
0.5083333333333333,-0.36,-0.29
0.5111111111111111,-0.365,-0.29
0.5138888888888888,-0.37,-0.275
0.5166666666666667,-0.355,-0.27
0.5194444444444445,-0.33,-0.245
0.5222222222222223,-0.325,-0.24
0.525,-0.325,-0.25
0.5277777777777778,-0.335,-0.25
0.5305555555555556,-0.34,-0.235
0.5333333333333333,-0.315,-0.22
0.5361111111111111,-0.3,-0.195
0.5388888888888889,-0.3,-0.19
0.5416666666666666,-0.29,-0.19
0.5444444444444444,-0.295,-0.19
0.5472222222222223,-0.29,-0.18
0.55,-0.285,-0.16
0.5527777777777778,-0.275,-0.145
0.5555555555555556,-0.255,-0.15
0.5583333333333333,-0.25,-0.16
0.5611111111111111,-0.25,-0.16
0.5638888888888889,-0.265,-0.155
0.5666666666666667,-0.255,-0.145
0.5694444444444444,-0.245,-0.14
0.5722222222222222,-0.23,-0.16
0.575,-0.245,-0.15
0.5777777777777777,-0.245,-0.175
0.5805555555555556,-0.255,-0.17
0.5833333333333334,-0.255,-0.16
0.5861111111111111,-0.24,-0.16
0.5888888888888889,-0.25,-0.15
0.5916666666666667,-0.255,-0.155
0.5944444444444444,-0.245,-0.16
0.5972222222222222,-0.255,-0.17
0.6,-0.25,-0.155
0.6027777777777777,-0.25,-0.155
0.6055555555555555,-0.265,-0.15
0.6083333333333333,-0.26,-0.165
0.6111111111111112,-0.26,-0.175
0.6138888888888889,-0.265,-0.165
0.6166666666666667,-0.27,-0.165
0.6194444444444445,-0.265,-0.16
0.6222222222222222,-0.26,-0.16
0.625,-0.275,-0.18
0.6277777777777778,-0.28,-0.175
0.6305555555555555,-0.29,-0.185
0.6333333333333333,-0.275,-0.165
0.6361111111111111,-0.27,-0.15
0.6388888888888888,-0.26,-0.15
0.6416666666666667,-0.28,-0.17
0.6444444444444445,-0.28,-0.185
0.6472222222222223,-0.285,-0.195
0.65,-0.275,-0.19
0.6527777777777778,-0.275,-0.19
0.6555555555555556,-0.265,-0.185
0.6583333333333333,-0.27,-0.19
0.6611111111111111,-0.285,-0.21
0.6638888888888889,-0.29,-0.195
0.6666666666666666,-0.28,-0.19
0.6694444444444444,-0.275,-0.18
0.6722222222222223,-0.285,-0.205
0.675,-0.28,-0.215
0.6777777777777778,-0.3,-0.225
0.6805555555555556,-0.3,-0.21
0.6833333333333333,-0.305,-0.205
0.6861111111111111,-0.295,-0.195
0.6888888888888889,-0.3,-0.2
0.6916666666666667,-0.31,-0.195
0.6944444444444444,-0.31,-0.21
0.6972222222222222,-0.305,-0.215
0.7,-0.295,-0.205
0.7027777777777777,-0.285,-0.185
0.7055555555555556,-0.285,-0.195
0.7083333333333334,-0.29,-0.195
0.7111111111111111,-0.295,-0.22
0.7138888888888889,-0.31,-0.22
0.7166666666666667,-0.29,-0.21
0.7194444444444444,-0.295,-0.215
0.7222222222222222,-0.3,-0.22
0.725,-0.305,-0.22
0.7277777777777777,-0.31,-0.225
0.7305555555555555,-0.325,-0.21
0.7333333333333333,-0.31,-0.2
0.7361111111111112,-0.3,-0.21
0.7388888888888889,-0.29,-0.225
0.7416666666666667,-0.31,-0.23
0.7444444444444445,-0.325,-0.225
0.7472222222222222,-0.33,-0.22
0.75,-0.315,-0.23
0.7527777777777778,-0.3,-0.21
0.7555555555555555,-0.305,-0.215
0.7583333333333333,-0.31,-0.215
0.7611111111111111,-0.32,-0.23
0.7638888888888888,-0.33,-0.215
0.7666666666666667,-0.325,-0.22
0.7694444444444445,-0.315,-0.205
0.7722222222222223,-0.31,-0.205
0.775,-0.305,-0.21
0.7777777777777778,-0.305,-0.215
0.7805555555555556,-0.31,-0.225
0.7833333333333333,-0.3,-0.215
0.7861111111111111,-0.305,-0.215
0.7888888888888889,-0.29,-0.215
0.7916666666666666,-0.3,-0.225
0.7944444444444444,-0.3,-0.225
0.7972222222222223,-0.305,-0.225
0.8,-0.305,-0.205
0.8027777777777778,-0.29,-0.195
0.8055555555555556,-0.28,-0.21
0.8083333333333333,-0.295,-0.21
0.8111111111111111,-0.305,-0.215
0.8138888888888889,-0.315,-0.235
0.8166666666666667,-0.305,-0.23
0.8194444444444444,-0.295,-0.22
0.8222222222222222,-0.29,-0.22
0.825,-0.28,-0.23
0.8277777777777777,-0.27,-0.225
0.8305555555555556,-0.275,-0.23
0.8333333333333334,-0.275,-0.215
0.8361111111111111,-0.27,-0.195
0.8388888888888889,-0.25,-0.195
0.8416666666666667,-0.25,-0.19
0.8444444444444444,-0.255,-0.2
0.8472222222222222,-0.225,-0.195
0.85,-0.22,-0.18
0.8527777777777777,-0.205,-0.17
0.8555555555555555,-0.2,-0.18
0.8583333333333333,-0.205,-0.175
0.8611111111111112,-0.215,-0.195
0.8638888888888889,-0.23,-0.195
0.8666666666666667,-0.22,-0.17
0.8694444444444445,-0.225,-0.175
0.8722222222222222,-0.225,-0.175
0.875,-0.225,-0.18
0.8777777777777778,-0.23,-0.185
0.8805555555555555,-0.235,-0.185
0.8833333333333333,-0.24,-0.175
0.8861111111111111,-0.235,-0.175
0.8888888888888888,-0.22,-0.175
0.8916666666666667,-0.21,-0.19
0.8944444444444445,-0.205,-0.205
0.8972222222222223,-0.245,-0.2
0.9,-0.285,-0.205
0.9027777777777778,-0.285,-0.205
0.9055555555555556,-0.3,-0.215
0.9083333333333333,-0.31,-0.215
0.9111111111111111,-0.33,-0.225
0.9138888888888889,-0.33,-0.215
0.9166666666666666,-0.325,-0.21
0.9194444444444444,-0.315,-0.2
0.9222222222222223,-0.32,-0.215
0.925,-0.315,-0.225
0.9277777777777778,-0.325,-0.245
0.9305555555555556,-0.34,-0.245
0.9333333333333333,-0.345,-0.25
0.9361111111111111,-0.34,-0.225
0.9388888888888889,-0.34,-0.23
0.9416666666666667,-0.35,-0.235
0.9444444444444444,-0.345,-0.24
0.9472222222222222,-0.355,-0.235
0.95,-0.33,-0.235
0.9527777777777777,-0.335,-0.22
0.9555555555555556,-0.33,-0.23
0.9583333333333334,-0.32,-0.24
0.9611111111111111,-0.345,-0.24
0.9638888888888889,-0.355,-0.245
0.9666666666666667,-0.34,-0.225
0.9694444444444444,-0.33,-0.225
0.9722222222222222,-0.325,-0.235
0.975,-0.33,-0.25
0.9777777777777777,-0.35,-0.27
0.9805555555555555,-0.365,-0.28
0.9833333333333333,-0.36,-0.29
0.9861111111111112,-0.38,-0.3
0.9888888888888889,-0.425,-0.33
0.9916666666666667,-0.445,-0.36
0.9944444444444445,-0.475,-0.355
0.9972222222222222,-0.51,-0.305
1.0,-0.535,-0.205
1.0027777777777778,-0.505,-0.08
1.0055555555555555,-0.415,0.015
1.0083333333333333,-0.3,0.065
1.011111111111111,-0.16,0.115
1.0138888888888888,-0.015,0.19
1.0166666666666666,0.235,0.3
1.0194444444444444,0.49,0.41
1.0222222222222221,0.72,0.495
1.025,0.875,0.485
1.0277777777777777,0.94,0.36
1.0305555555555554,0.905,0.105
1.0333333333333334,0.755,-0.165
1.0361111111111112,0.49,-0.35
1.038888888888889,0.165,-0.45
1.0416666666666667,-0.11,-0.47
1.0444444444444445,-0.27,-0.45
1.0472222222222223,-0.39,-0.395
1.05,-0.45,-0.345
1.0527777777777778,-0.475,-0.31
1.0555555555555556,-0.455,-0.295
1.0583333333333333,-0.425,-0.285
1.0611111111111111,-0.39,-0.295
1.0638888888888889,-0.39,-0.295
1.0666666666666667,-0.385,-0.28
1.0694444444444444,-0.39,-0.285
1.0722222222222222,-0.38,-0.285
1.075,-0.38,-0.285
1.0777777777777777,-0.38,-0.29
1.0805555555555555,-0.395,-0.275
1.0833333333333333,-0.385,-0.275
1.086111111111111,-0.385,-0.275
1.0888888888888888,-0.385,-0.27
1.0916666666666666,-0.375,-0.285
1.0944444444444446,-0.395,-0.295
1.0972222222222223,-0.41,-0.29
1.1,-0.41,-0.275
1.1027777777777779,-0.4,-0.265
1.1055555555555556,-0.395,-0.265
1.1083333333333334,-0.39,-0.275
1.1111111111111112,-0.405,-0.295
1.113888888888889,-0.395,-0.29
1.1166666666666667,-0.385,-0.285
1.1194444444444445,-0.375,-0.27
1.1222222222222222,-0.39,-0.265
1.125,-0.39,-0.275
1.1277777777777778,-0.405,-0.28
1.1305555555555555,-0.41,-0.28
1.1333333333333333,-0.41,-0.27
1.136111111111111,-0.39,-0.265
1.1388888888888888,-0.39,-0.27
1.1416666666666666,-0.395,-0.27
1.1444444444444444,-0.405,-0.28
1.1472222222222221,-0.415,-0.27
1.15,-0.4,-0.265
1.1527777777777777,-0.41,-0.265
1.1555555555555554,-0.405,-0.265
1.1583333333333334,-0.41,-0.27
1.1611111111111112,-0.415,-0.285
1.163888888888889,-0.41,-0.285
1.1666666666666667,-0.4,-0.265
1.1694444444444445,-0.4,-0.265
1.1722222222222223,-0.395,-0.255
1.175,-0.39,-0.275
1.1777777777777778,-0.405,-0.275
1.1805555555555556,-0.41,-0.28
1.1833333333333333,-0.39,-0.27
1.1861111111111111,-0.39,-0.265
1.1888888888888889,-0.385,-0.275
1.1916666666666667,-0.385,-0.285
1.1944444444444444,-0.41,-0.28
1.1972222222222222,-0.405,-0.28
1.2,-0.395,-0.275
1.2027777777777777,-0.39,-0.275
1.2055555555555555,-0.375,-0.275
1.2083333333333333,-0.39,-0.285
1.211111111111111,-0.395,-0.295
1.2138888888888888,-0.41,-0.295
1.2166666666666666,-0.4,-0.275
1.2194444444444446,-0.39,-0.275
1.2222222222222223,-0.39,-0.285
1.225,-0.385,-0.29
1.2277777777777779,-0.405,-0.315
1.2305555555555556,-0.415,-0.315
1.2333333333333334,-0.415,-0.305
1.2361111111111112,-0.4,-0.29
1.238888888888889,-0.395,-0.31
1.2416666666666667,-0.405,-0.32
1.2444444444444445,-0.415,-0.32
1.2472222222222222,-0.42,-0.335
1.25,-0.42,-0.33
1.2527777777777778,-0.41,-0.325
1.2555555555555555,-0.415,-0.345
1.2583333333333333,-0.425,-0.35
1.261111111111111,-0.42,-0.365
1.2638888888888888,-0.435,-0.37
1.2666666666666666,-0.43,-0.355
1.2694444444444444,-0.43,-0.36
1.2722222222222221,-0.42,-0.37
1.275,-0.43,-0.39
1.2777777777777777,-0.45,-0.395
1.2805555555555554,-0.455,-0.4
1.2833333333333334,-0.45,-0.39
1.2861111111111112,-0.435,-0.385
1.288888888888889,-0.445,-0.39
1.2916666666666667,-0.45,-0.4
1.2944444444444445,-0.455,-0.41
1.2972222222222223,-0.47,-0.42
1.3,-0.46,-0.405
1.3027777777777778,-0.455,-0.41
1.3055555555555556,-0.45,-0.41
1.3083333333333333,-0.455,-0.4
1.3111111111111111,-0.47,-0.405
1.3138888888888889,-0.475,-0.39
1.3166666666666667,-0.46,-0.385
1.3194444444444444,-0.45,-0.365
1.3222222222222222,-0.445,-0.355
1.325,-0.44,-0.345
1.3277777777777777,-0.435,-0.355
1.3305555555555555,-0.44,-0.33
1.3333333333333333,-0.41,-0.295
1.336111111111111,-0.395,-0.275
1.3388888888888888,-0.37,-0.27
1.3416666666666666,-0.365,-0.26
1.3444444444444446,-0.36,-0.265
1.3472222222222223,-0.365,-0.265
1.35,-0.34,-0.245
1.3527777777777779,-0.325,-0.225
1.3555555555555556,-0.315,-0.21
1.3583333333333334,-0.32,-0.215
1.3611111111111112,-0.33,-0.215
1.363888888888889,-0.33,-0.205
1.3666666666666667,-0.32,-0.195
1.3694444444444445,-0.31,-0.185
1.3722222222222222,-0.3,-0.185
1.375,-0.3,-0.195
1.3777777777777778,-0.32,-0.195
1.3805555555555555,-0.32,-0.195
1.3833333333333333,-0.315,-0.185
1.386111111111111,-0.305,-0.17
1.3888888888888888,-0.305,-0.185
1.3916666666666666,-0.295,-0.195
1.3944444444444444,-0.32,-0.195
1.3972222222222221,-0.33,-0.195
1.4,-0.305,-0.185
1.4027777777777777,-0.31,-0.175
1.4055555555555554,-0.3,-0.175
1.4083333333333334,-0.3,-0.185
1.4111111111111112,-0.32,-0.195
1.413888888888889,-0.325,-0.195
1.4166666666666667,-0.31,-0.195
1.4194444444444445,-0.305,-0.18
1.4222222222222223,-0.315,-0.185
1.425,-0.305,-0.19
1.4277777777777778,-0.315,-0.195
1.4305555555555556,-0.315,-0.195
1.4333333333333333,-0.31,-0.19
1.4361111111111111,-0.295,-0.185
1.4388888888888889,-0.29,-0.185
1.4416666666666667,-0.305,-0.19
1.4444444444444444,-0.31,-0.2
1.4472222222222222,-0.32,-0.215
1.45,-0.315,-0.195
1.4527777777777777,-0.3,-0.185
1.4555555555555555,-0.315,-0.185
1.4583333333333333,-0.315,-0.185
1.461111111111111,-0.315,-0.2
1.4638888888888888,-0.33,-0.205
1.4666666666666666,-0.315,-0.19
1.4694444444444446,-0.32,-0.19
1.4722222222222223,-0.315,-0.2
1.475,-0.325,-0.2
1.4777777777777779,-0.335,-0.195
1.4805555555555556,-0.34,-0.22
1.4833333333333334,-0.335,-0.205
1.4861111111111112,-0.335,-0.19
1.488888888888889,-0.33,-0.2
1.4916666666666667,-0.325,-0.22
1.4944444444444445,-0.345,-0.23
1.4972222222222222,-0.35,-0.21
1.5,-0.345,-0.205
1.5027777777777778,-0.335,-0.2
1.5055555555555555,-0.33,-0.195
1.5083333333333333,-0.33,-0.22
1.511111111111111,-0.345,-0.225
1.5138888888888888,-0.345,-0.225
1.5166666666666666,-0.345,-0.215
1.5194444444444444,-0.32,-0.205
1.5222222222222221,-0.33,-0.205
1.525,-0.335,-0.215
1.5277777777777777,-0.34,-0.225
1.5305555555555554,-0.355,-0.22
1.5333333333333334,-0.335,-0.225
1.5361111111111112,-0.33,-0.195
1.538888888888889,-0.33,-0.215
1.5416666666666667,-0.335,-0.22
1.5444444444444445,-0.355,-0.215
1.5472222222222223,-0.36,-0.225
1.55,-0.355,-0.215
1.5527777777777778,-0.35,-0.21
1.5555555555555556,-0.34,-0.21
1.5583333333333333,-0.345,-0.225
1.5611111111111111,-0.345,-0.23
1.5638888888888889,-0.345,-0.22
1.5666666666666667,-0.345,-0.21
1.5694444444444444,-0.33,-0.205
1.5722222222222222,-0.33,-0.2
1.575,-0.335,-0.205
1.5777777777777777,-0.345,-0.22
1.5805555555555555,-0.35,-0.23
1.5833333333333333,-0.35,-0.215
1.586111111111111,-0.34,-0.205
1.5888888888888888,-0.33,-0.2
1.5916666666666666,-0.345,-0.23
1.5944444444444446,-0.345,-0.22
1.5972222222222223,-0.355,-0.215
1.6,-0.35,-0.205
1.6027777777777779,-0.34,-0.2
1.6055555555555556,-0.33,-0.205
1.6083333333333334,-0.34,-0.22
1.6111111111111112,-0.34,-0.22
1.613888888888889,-0.34,-0.225
1.6166666666666667,-0.33,-0.205
1.6194444444444445,-0.335,-0.2
1.6222222222222222,-0.33,-0.2
1.625,-0.335,-0.21
1.6277777777777778,-0.345,-0.23
1.6305555555555555,-0.345,-0.215
1.6333333333333333,-0.34,-0.2
1.636111111111111,-0.33,-0.2
1.6388888888888888,-0.315,-0.205
1.6416666666666666,-0.295,-0.21
1.6444444444444444,-0.3,-0.215
1.6472222222222221,-0.295,-0.22
1.65,-0.285,-0.205
1.6527777777777777,-0.275,-0.2
1.6555555555555554,-0.265,-0.195
1.6583333333333334,-0.265,-0.205
1.6611111111111112,-0.265,-0.205
1.663888888888889,-0.255,-0.205
1.6666666666666667,-0.25,-0.18
1.6694444444444445,-0.24,-0.17
1.6722222222222223,-0.225,-0.19
1.675,-0.215,-0.19
1.6777777777777778,-0.24,-0.2
1.6805555555555556,-0.245,-0.185
1.6833333333333333,-0.24,-0.165
1.6861111111111111,-0.245,-0.145
1.6888888888888889,-0.235,-0.145
1.6916666666666667,-0.245,-0.17
1.6944444444444444,-0.25,-0.175
1.6972222222222222,-0.275,-0.17
1.7,-0.275,-0.165
1.7027777777777777,-0.265,-0.15
1.7055555555555555,-0.25,-0.16
1.7083333333333333,-0.225,-0.175
1.711111111111111,-0.22,-0.19
1.7138888888888888,-0.23,-0.19
1.7166666666666666,-0.265,-0.185
1.7194444444444446,-0.27,-0.185
1.7222222222222223,-0.28,-0.175
1.725,-0.285,-0.195
1.7277777777777779,-0.305,-0.215
1.7305555555555556,-0.32,-0.205
1.7333333333333334,-0.34,-0.2
1.7361111111111112,-0.33,-0.195
1.738888888888889,-0.335,-0.205
1.7416666666666667,-0.335,-0.21
1.7444444444444445,-0.355,-0.22
1.7472222222222222,-0.37,-0.215
1.75,-0.36,-0.21
1.7527777777777778,-0.345,-0.205
1.7555555555555555,-0.35,-0.2
1.7583333333333333,-0.355,-0.21
1.761111111111111,-0.365,-0.22
1.7638888888888888,-0.375,-0.22
1.7666666666666666,-0.38,-0.22
1.7694444444444444,-0.37,-0.2
1.7722222222222221,-0.365,-0.205
1.775,-0.365,-0.215
1.7777777777777777,-0.38,-0.225
1.7805555555555554,-0.385,-0.22
1.7833333333333334,-0.38,-0.215
1.7861111111111112,-0.375,-0.205
1.788888888888889,-0.355,-0.22
1.7916666666666667,-0.37,-0.225
1.7944444444444445,-0.39,-0.24
1.7972222222222223,-0.405,-0.26
1.8,-0.41,-0.28
1.8027777777777778,-0.435,-0.3
1.8055555555555556,-0.465,-0.345
1.8083333333333333,-0.49,-0.375
1.8111111111111111,-0.52,-0.345
1.8138888888888889,-0.555,-0.26
1.8166666666666667,-0.57,-0.125
1.8194444444444444,-0.525,0.025
1.8222222222222222,-0.405,0.145
1.825,-0.25,0.26
1.8277777777777777,-0.09,0.375
1.8305555555555555,0.12,0.505
1.8333333333333333,0.41,0.635
1.836111111111111,0.69,0.705
1.8388888888888888,0.885,0.61
1.8416666666666666,0.96,0.32
1.8444444444444446,0.85,-0.045
1.8472222222222223,0.52,-0.25
1.85,0.05,-0.27
1.8527777777777779,-0.32,-0.24
1.8555555555555556,-0.5,-0.24
1.8583333333333334,-0.505,-0.25
1.8611111111111112,-0.445,-0.255
1.863888888888889,-0.415,-0.245
1.8666666666666667,-0.395,-0.245
1.8694444444444445,-0.39,-0.245
1.8722222222222222,-0.395,-0.255
1.875,-0.39,-0.26
1.8777777777777778,-0.395,-0.26
1.8805555555555555,-0.405,-0.27
1.8833333333333333,-0.395,-0.245
1.886111111111111,-0.405,-0.245
1.8888888888888888,-0.39,-0.25
1.8916666666666666,-0.395,-0.265
1.8944444444444444,-0.395,-0.27
1.8972222222222221,-0.41,-0.27
1.9,-0.405,-0.265
1.9027777777777777,-0.4,-0.26
1.9055555555555554,-0.4,-0.26
1.9083333333333334,-0.415,-0.27
1.9111111111111112,-0.405,-0.28
1.913888888888889,-0.42,-0.28
1.9166666666666667,-0.415,-0.27
1.9194444444444445,-0.405,-0.255
1.9222222222222223,-0.405,-0.265
1.925,-0.42,-0.28
1.9277777777777778,-0.42,-0.29
1.9305555555555556,-0.435,-0.275
1.9333333333333333,-0.42,-0.265
1.9361111111111111,-0.41,-0.255
1.9388888888888889,-0.41,-0.26
1.9416666666666667,-0.405,-0.26
1.9444444444444444,-0.425,-0.28
1.9472222222222222,-0.43,-0.28
1.95,-0.42,-0.265
1.9527777777777777,-0.415,-0.26
1.9555555555555555,-0.41,-0.255
1.9583333333333333,-0.41,-0.26
1.961111111111111,-0.425,-0.275
1.9638888888888888,-0.42,-0.27
1.9666666666666666,-0.4,-0.275
1.9694444444444446,-0.395,-0.265
1.9722222222222223,-0.4,-0.265
1.975,-0.4,-0.27
1.9777777777777779,-0.395,-0.28
1.9805555555555556,-0.415,-0.285
1.9833333333333334,-0.405,-0.28
1.9861111111111112,-0.39,-0.255
1.988888888888889,-0.4,-0.27
1.9916666666666667,-0.4,-0.28
1.9944444444444445,-0.415,-0.29
1.9972222222222222,-0.425,-0.29
2.0,-0.425,-0.27
2.0027777777777778,-0.415,-0.27
2.0055555555555555,-0.415,-0.285
2.0083333333333333,-0.41,-0.3
2.011111111111111,-0.425,-0.3
2.013888888888889,-0.425,-0.3
2.0166666666666666,-0.42,-0.295
2.0194444444444444,-0.415,-0.275
2.022222222222222,-0.4,-0.295
2.025,-0.4,-0.3
2.0277777777777777,-0.41,-0.31
2.0305555555555554,-0.425,-0.31
2.033333333333333,-0.41,-0.315
2.036111111111111,-0.405,-0.31
2.0388888888888888,-0.395,-0.31
2.0416666666666665,-0.4,-0.335
2.0444444444444443,-0.4,-0.345
2.047222222222222,-0.405,-0.355
2.05,-0.385,-0.35
2.0527777777777776,-0.4,-0.345
2.0555555555555554,-0.39,-0.36
2.058333333333333,-0.39,-0.37
2.061111111111111,-0.4,-0.375
2.063888888888889,-0.415,-0.385
2.066666666666667,-0.405,-0.37
2.0694444444444446,-0.405,-0.37
2.0722222222222224,-0.41,-0.385
2.075,-0.415,-0.4
2.077777777777778,-0.42,-0.415
2.0805555555555557,-0.42,-0.405
2.0833333333333335,-0.425,-0.41
2.0861111111111112,-0.415,-0.39
2.088888888888889,-0.415,-0.405
2.091666666666667,-0.41,-0.41
2.0944444444444446,-0.435,-0.425
2.0972222222222223,-0.43,-0.42
2.1,-0.435,-0.41
2.102777777777778,-0.42,-0.405
2.1055555555555556,-0.42,-0.4
2.1083333333333334,-0.42,-0.4
2.111111111111111,-0.42,-0.405
2.113888888888889,-0.425,-0.385
2.1166666666666667,-0.425,-0.365
2.1194444444444445,-0.415,-0.345
2.1222222222222222,-0.395,-0.335
2.125,-0.395,-0.325
2.1277777777777778,-0.39,-0.31
2.1305555555555555,-0.375,-0.295
2.1333333333333333,-0.36,-0.275
2.136111111111111,-0.34,-0.255
2.138888888888889,-0.335,-0.25
2.1416666666666666,-0.33,-0.24
2.1444444444444444,-0.335,-0.245
2.147222222222222,-0.335,-0.23
2.15,-0.325,-0.205
2.1527777777777777,-0.32,-0.2
2.1555555555555554,-0.305,-0.2
2.158333333333333,-0.305,-0.205
2.161111111111111,-0.315,-0.21
2.1638888888888888,-0.31,-0.22
2.1666666666666665,-0.305,-0.195
2.1694444444444443,-0.3,-0.19
2.172222222222222,-0.3,-0.2
2.175,-0.3,-0.2
2.1777777777777776,-0.31,-0.21
2.1805555555555554,-0.31,-0.2
2.183333333333333,-0.31,-0.19
2.186111111111111,-0.315,-0.175
2.188888888888889,-0.3,-0.2
2.191666666666667,-0.305,-0.205
2.1944444444444446,-0.315,-0.21
2.1972222222222224,-0.32,-0.2
2.2,-0.325,-0.2
2.202777777777778,-0.31,-0.18
2.2055555555555557,-0.305,-0.19
2.2083333333333335,-0.305,-0.19
2.2111111111111112,-0.32,-0.205
2.213888888888889,-0.325,-0.205
2.216666666666667,-0.305,-0.195
2.2194444444444446,-0.31,-0.185
2.2222222222222223,-0.295,-0.19
2.225,-0.31,-0.19
2.227777777777778,-0.325,-0.21
2.2305555555555556,-0.33,-0.21
2.2333333333333334,-0.32,-0.205
2.236111111111111,-0.32,-0.205
2.238888888888889,-0.32,-0.2
2.2416666666666667,-0.325,-0.215
2.2444444444444445,-0.35,-0.225
2.2472222222222222,-0.35,-0.21
2.25,-0.34,-0.21
2.2527777777777778,-0.335,-0.21
2.2555555555555555,-0.33,-0.215
2.2583333333333333,-0.335,-0.225
2.261111111111111,-0.34,-0.225
2.263888888888889,-0.36,-0.23
2.2666666666666666,-0.35,-0.21
2.2694444444444444,-0.35,-0.21
2.272222222222222,-0.355,-0.23
2.275,-0.36,-0.25
2.2777777777777777,-0.355,-0.25
2.2805555555555554,-0.365,-0.245
2.283333333333333,-0.355,-0.23
2.286111111111111,-0.35,-0.215
2.2888888888888888,-0.34,-0.23
2.2916666666666665,-0.355,-0.24
2.2944444444444443,-0.35,-0.245
2.297222222222222,-0.365,-0.245
2.3,-0.365,-0.24
2.3027777777777776,-0.35,-0.215
2.3055555555555554,-0.355,-0.225
2.308333333333333,-0.35,-0.24
2.311111111111111,-0.37,-0.24
2.313888888888889,-0.38,-0.245
2.316666666666667,-0.37,-0.24
2.3194444444444446,-0.36,-0.23
2.3222222222222224,-0.365,-0.235
2.325,-0.36,-0.24
2.327777777777778,-0.365,-0.23
2.3305555555555557,-0.38,-0.25
2.3333333333333335,-0.37,-0.225
2.3361111111111112,-0.365,-0.215
2.338888888888889,-0.35,-0.23
2.341666666666667,-0.35,-0.24
2.3444444444444446,-0.35,-0.25
2.3472222222222223,-0.37,-0.265
2.35,-0.365,-0.23
2.352777777777778,-0.345,-0.22
2.3555555555555556,-0.345,-0.235
2.3583333333333334,-0.34,-0.225
2.361111111111111,-0.355,-0.235
2.363888888888889,-0.365,-0.235
2.3666666666666667,-0.36,-0.225
2.3694444444444445,-0.355,-0.225
2.3722222222222222,-0.355,-0.215
2.375,-0.355,-0.225
2.3777777777777778,-0.375,-0.235
2.3805555555555555,-0.385,-0.23
2.3833333333333333,-0.355,-0.225
2.386111111111111,-0.36,-0.225
2.388888888888889,-0.355,-0.225
2.3916666666666666,-0.36,-0.225
2.3944444444444444,-0.36,-0.23
2.397222222222222,-0.37,-0.23
2.4,-0.36,-0.215
2.4027777777777777,-0.345,-0.21
2.4055555555555554,-0.355,-0.225
2.408333333333333,-0.345,-0.24
2.411111111111111,-0.345,-0.235
2.4138888888888888,-0.345,-0.24
2.4166666666666665,-0.34,-0.225
2.4194444444444443,-0.31,-0.215
2.422222222222222,-0.305,-0.22
2.425,-0.305,-0.22
2.4277777777777776,-0.31,-0.23
2.4305555555555554,-0.305,-0.23
2.433333333333333,-0.29,-0.205
2.436111111111111,-0.285,-0.2
2.438888888888889,-0.275,-0.205
2.441666666666667,-0.28,-0.195
2.4444444444444446,-0.28,-0.21
2.4472222222222224,-0.275,-0.205
2.45,-0.265,-0.19
2.452777777777778,-0.255,-0.185
2.4555555555555557,-0.245,-0.2
2.4583333333333335,-0.26,-0.195
2.4611111111111112,-0.265,-0.2
2.463888888888889,-0.275,-0.19
2.466666666666667,-0.28,-0.17
2.4694444444444446,-0.265,-0.14
2.4722222222222223,-0.27,-0.165
2.475,-0.275,-0.165
2.477777777777778,-0.28,-0.185
2.4805555555555556,-0.275,-0.18
2.4833333333333334,-0.28,-0.17
2.486111111111111,-0.275,-0.15
2.488888888888889,-0.265,-0.165
2.4916666666666667,-0.255,-0.18
2.4944444444444445,-0.24,-0.2
2.4972222222222222,-0.26,-0.21
2.5,-0.28,-0.21
2.5027777777777778,-0.31,-0.185
2.5055555555555555,-0.31,-0.19
2.5083333333333333,-0.345,-0.2
2.511111111111111,-0.36,-0.215
2.513888888888889,-0.38,-0.22
2.5166666666666666,-0.385,-0.21
2.5194444444444444,-0.38,-0.195
2.522222222222222,-0.37,-0.205
2.525,-0.375,-0.22
2.5277777777777777,-0.385,-0.225
2.5305555555555554,-0.39,-0.23
2.533333333333333,-0.395,-0.22
2.536111111111111,-0.385,-0.21
2.5388888888888888,-0.385,-0.21
2.5416666666666665,-0.385,-0.23
2.5444444444444443,-0.395,-0.235
2.547222222222222,-0.405,-0.23
2.55,-0.4,-0.225
2.5527777777777776,-0.375,-0.215
2.5555555555555554,-0.375,-0.22
2.558333333333333,-0.39,-0.22
2.561111111111111,-0.395,-0.23
2.563888888888889,-0.415,-0.24
2.566666666666667,-0.405,-0.22
2.5694444444444446,-0.4,-0.225
2.5722222222222224,-0.39,-0.235
2.575,-0.405,-0.25
2.577777777777778,-0.425,-0.28
2.5805555555555557,-0.46,-0.305
2.5833333333333335,-0.475,-0.325
2.5861111111111112,-0.505,-0.345
2.588888888888889,-0.51,-0.375
2.591666666666667,-0.525,-0.415
2.5944444444444446,-0.54,-0.425
2.5972222222222223,-0.6,-0.385
2.6,-0.645,-0.295
2.602777777777778,-0.63,-0.18
2.6055555555555556,-0.575,-0.065
2.6083333333333334,-0.495,0.035
2.611111111111111,-0.385,0.13
2.613888888888889,-0.27,0.24
2.6166666666666667,-0.115,0.37
2.6194444444444445,0.09,0.495
2.6222222222222222,0.37,0.61
2.625,0.635,0.655
2.6277777777777778,0.81,0.545
2.6305555555555555,0.86,0.23
2.6333333333333333,0.77,-0.105
2.636111111111111,0.475,-0.28
2.638888888888889,0.065,-0.285
2.6416666666666666,-0.305,-0.255
2.6444444444444444,-0.5,-0.255
2.647222222222222,-0.52,-0.26
2.65,-0.475,-0.23
2.6527777777777777,-0.41,-0.22
2.6555555555555554,-0.39,-0.245
2.658333333333333,-0.39,-0.255
2.661111111111111,-0.4,-0.26
2.6638888888888888,-0.41,-0.25
2.6666666666666665,-0.405,-0.235
2.6694444444444443,-0.385,-0.245
2.672222222222222,-0.39,-0.245
2.675,-0.395,-0.26
2.6777777777777776,-0.405,-0.265
2.6805555555555554,-0.41,-0.265
2.683333333333333,-0.405,-0.26
2.686111111111111,-0.4,-0.24
2.688888888888889,-0.39,-0.245
2.691666666666667,-0.395,-0.26
2.6944444444444446,-0.41,-0.27
2.6972222222222224,-0.415,-0.27
2.7,-0.41,-0.255
2.702777777777778,-0.395,-0.255
2.7055555555555557,-0.405,-0.25
2.7083333333333335,-0.41,-0.265
2.7111111111111112,-0.405,-0.27
2.713888888888889,-0.405,-0.27
2.716666666666667,-0.41,-0.265
2.7194444444444446,-0.39,-0.25
2.7222222222222223,-0.385,-0.245
2.725,-0.39,-0.265
2.727777777777778,-0.395,-0.27
2.7305555555555556,-0.4,-0.26
2.7333333333333334,-0.4,-0.255
2.736111111111111,-0.4,-0.245
2.738888888888889,-0.395,-0.25
2.7416666666666667,-0.395,-0.26
2.7444444444444445,-0.405,-0.27
2.7472222222222222,-0.405,-0.26
2.75,-0.4,-0.255
2.7527777777777778,-0.395,-0.25
2.7555555555555555,-0.385,-0.255
2.7583333333333333,-0.375,-0.255
2.761111111111111,-0.385,-0.275
2.763888888888889,-0.395,-0.27
2.7666666666666666,-0.39,-0.265
2.7694444444444444,-0.385,-0.26
2.772222222222222,-0.375,-0.26
2.775,-0.385,-0.275
2.7777777777777777,-0.395,-0.27
2.7805555555555554,-0.395,-0.26
2.783333333333333,-0.385,-0.245
2.786111111111111,-0.375,-0.255
2.7888888888888888,-0.375,-0.265
2.7916666666666665,-0.385,-0.265
2.7944444444444443,-0.395,-0.27
2.797222222222222,-0.39,-0.265
2.8,-0.39,-0.26
2.8027777777777776,-0.365,-0.27
2.8055555555555554,-0.375,-0.265
2.808333333333333,-0.385,-0.27
2.811111111111111,-0.395,-0.28
2.813888888888889,-0.38,-0.285
2.816666666666667,-0.385,-0.28
2.8194444444444446,-0.375,-0.285
2.8222222222222224,-0.38,-0.29
2.825,-0.39,-0.31
2.827777777777778,-0.38,-0.305
2.8305555555555557,-0.375,-0.3
2.8333333333333335,-0.375,-0.3
2.8361111111111112,-0.375,-0.31
2.838888888888889,-0.375,-0.325
2.841666666666667,-0.38,-0.34
2.8444444444444446,-0.39,-0.34
2.8472222222222223,-0.39,-0.325
2.85,-0.365,-0.32
2.852777777777778,-0.37,-0.355
2.8555555555555556,-0.375,-0.36
2.8583333333333334,-0.385,-0.38
2.861111111111111,-0.39,-0.385
2.863888888888889,-0.39,-0.375
2.8666666666666667,-0.375,-0.365
2.8694444444444445,-0.365,-0.375
2.8722222222222222,-0.385,-0.385
2.875,-0.38,-0.39
2.8777777777777778,-0.39,-0.395
2.8805555555555555,-0.375,-0.385
2.8833333333333333,-0.375,-0.375
2.886111111111111,-0.365,-0.375
2.888888888888889,-0.37,-0.375
2.8916666666666666,-0.385,-0.38
2.8944444444444444,-0.395,-0.365
2.897222222222222,-0.385,-0.345
2.9,-0.385,-0.335
2.9027777777777777,-0.37,-0.315
2.9055555555555554,-0.365,-0.31
2.908333333333333,-0.37,-0.305
2.911111111111111,-0.375,-0.29
2.9138888888888888,-0.35,-0.27
2.9166666666666665,-0.335,-0.255
2.9194444444444443,-0.32,-0.25
2.922222222222222,-0.315,-0.245
2.925,-0.32,-0.235
2.9277777777777776,-0.325,-0.235
2.9305555555555554,-0.315,-0.225
2.933333333333333,-0.295,-0.22
2.936111111111111,-0.285,-0.195
2.938888888888889,-0.3,-0.215
2.941666666666667,-0.295,-0.23
2.9444444444444446,-0.285,-0.215
2.9472222222222224,-0.285,-0.205
2.95,-0.28,-0.195
2.952777777777778,-0.27,-0.2
2.9555555555555557,-0.28,-0.195
2.9583333333333335,-0.29,-0.195
2.9611111111111112,-0.295,-0.205
2.963888888888889,-0.295,-0.195
2.966666666666667,-0.29,-0.18
2.9694444444444446,-0.28,-0.19
2.9722222222222223,-0.29,-0.205
2.975,-0.295,-0.21
2.977777777777778,-0.31,-0.205
2.9805555555555556,-0.295,-0.18
2.9833333333333334,-0.285,-0.185
2.986111111111111,-0.28,-0.19
2.988888888888889,-0.275,-0.205
2.9916666666666667,-0.295,-0.215
2.9944444444444445,-0.305,-0.215
2.9972222222222222,-0.3,-0.215
3.0,-0.295,-0.19
3.0027777777777778,-0.295,-0.21
3.0055555555555555,-0.285,-0.2
3.0083333333333333,-0.3,-0.215
3.011111111111111,-0.305,-0.22
3.013888888888889,-0.3,-0.225
3.0166666666666666,-0.295,-0.215
3.0194444444444444,-0.3,-0.215
3.022222222222222,-0.305,-0.23
3.025,-0.315,-0.225
3.0277777777777777,-0.31,-0.225
3.0305555555555554,-0.315,-0.21
3.033333333333333,-0.295,-0.21
3.036111111111111,-0.3,-0.215
3.0388888888888888,-0.31,-0.23
3.0416666666666665,-0.33,-0.235
3.0444444444444443,-0.34,-0.23
3.047222222222222,-0.33,-0.22
3.05,-0.32,-0.215
3.0527777777777776,-0.32,-0.23
3.0555555555555554,-0.315,-0.235
3.058333333333333,-0.325,-0.25
3.061111111111111,-0.335,-0.245
3.063888888888889,-0.33,-0.24
3.066666666666667,-0.315,-0.22
3.0694444444444446,-0.32,-0.23
3.0722222222222224,-0.32,-0.23
3.075,-0.33,-0.235
3.077777777777778,-0.345,-0.24
3.0805555555555557,-0.34,-0.235
3.0833333333333335,-0.335,-0.22
3.0861111111111112,-0.33,-0.23
3.088888888888889,-0.335,-0.24
3.091666666666667,-0.345,-0.255
3.0944444444444446,-0.35,-0.245
3.0972222222222223,-0.345,-0.235
3.1,-0.34,-0.22
3.102777777777778,-0.335,-0.23
3.1055555555555556,-0.335,-0.24
3.1083333333333334,-0.33,-0.25
3.111111111111111,-0.335,-0.255
3.113888888888889,-0.34,-0.24
3.1166666666666667,-0.335,-0.225
3.1194444444444445,-0.32,-0.23
3.1222222222222222,-0.34,-0.235
3.125,-0.34,-0.24
3.1277777777777778,-0.35,-0.245
3.1305555555555555,-0.365,-0.235
3.1333333333333333,-0.36,-0.23
3.136111111111111,-0.345,-0.235
3.138888888888889,-0.345,-0.24
3.1416666666666666,-0.35,-0.245
3.1444444444444444,-0.35,-0.235
3.147222222222222,-0.35,-0.235
3.15,-0.34,-0.23
3.1527777777777777,-0.34,-0.24
3.1555555555555554,-0.345,-0.235
3.158333333333333,-0.345,-0.245
3.161111111111111,-0.38,-0.25
3.1638888888888888,-0.36,-0.23
3.1666666666666665,-0.36,-0.21
3.1694444444444443,-0.345,-0.23
3.172222222222222,-0.345,-0.235
3.175,-0.35,-0.245
3.1777777777777776,-0.355,-0.25
3.1805555555555554,-0.345,-0.245
3.183333333333333,-0.33,-0.23
3.186111111111111,-0.33,-0.23
3.188888888888889,-0.335,-0.235
3.191666666666667,-0.335,-0.25
3.1944444444444446,-0.34,-0.25
3.1972222222222224,-0.33,-0.24
3.2,-0.32,-0.225
3.202777777777778,-0.29,-0.23
3.2055555555555557,-0.29,-0.235
3.2083333333333335,-0.3,-0.24
3.2111111111111112,-0.305,-0.245
3.213888888888889,-0.285,-0.24
3.216666666666667,-0.28,-0.225
3.2194444444444446,-0.275,-0.225
3.2222222222222223,-0.28,-0.23
3.225,-0.275,-0.23
3.227777777777778,-0.27,-0.225
3.2305555555555556,-0.265,-0.205
3.2333333333333334,-0.25,-0.21
3.236111111111111,-0.23,-0.22
3.238888888888889,-0.245,-0.205
3.2416666666666667,-0.24,-0.22
3.2444444444444445,-0.255,-0.22
3.2472222222222222,-0.255,-0.21
3.25,-0.245,-0.19
3.2527777777777778,-0.235,-0.18
3.2555555555555555,-0.255,-0.18
3.2583333333333333,-0.265,-0.185
3.261111111111111,-0.26,-0.19
3.263888888888889,-0.255,-0.19
3.2666666666666666,-0.27,-0.185
3.2694444444444444,-0.265,-0.205
3.272222222222222,-0.28,-0.2
3.275,-0.255,-0.22
3.2777777777777777,-0.25,-0.22
3.2805555555555554,-0.245,-0.22
3.283333333333333,-0.265,-0.21
3.286111111111111,-0.28,-0.225
3.2888888888888888,-0.3,-0.22
3.2916666666666665,-0.315,-0.24
3.2944444444444443,-0.325,-0.245
3.297222222222222,-0.335,-0.235
3.3,-0.345,-0.23
3.3027777777777776,-0.33,-0.245
3.3055555555555554,-0.335,-0.245
3.308333333333333,-0.345,-0.25
3.311111111111111,-0.36,-0.255
3.313888888888889,-0.35,-0.23
3.316666666666667,-0.34,-0.225
3.3194444444444446,-0.335,-0.23
3.3222222222222224,-0.345,-0.245
3.325,-0.36,-0.255
3.327777777777778,-0.365,-0.265
3.3305555555555557,-0.375,-0.255
3.3333333333333335,-0.37,-0.245
3.3361111111111112,-0.365,-0.26
3.338888888888889,-0.365,-0.25
3.341666666666667,-0.38,-0.26
3.3444444444444446,-0.375,-0.27
3.3472222222222223,-0.375,-0.24
3.35,-0.365,-0.245
3.352777777777778,-0.37,-0.25
3.3555555555555556,-0.36,-0.25
3.3583333333333334,-0.37,-0.25
3.361111111111111,-0.38,-0.265
3.363888888888889,-0.365,-0.255
3.3666666666666667,-0.36,-0.245
3.3694444444444445,-0.35,-0.255
3.3722222222222222,-0.355,-0.265
3.375,-0.37,-0.28
3.3777777777777778,-0.385,-0.305
3.3805555555555555,-0.395,-0.32
3.3833333333333333,-0.43,-0.35
3.386111111111111,-0.445,-0.38
3.388888888888889,-0.485,-0.39
3.3916666666666666,-0.515,-0.345
3.3944444444444444,-0.565,-0.24
3.397222222222222,-0.555,-0.11
3.4,-0.475,-0.02
3.4027777777777777,-0.355,0.04
3.4055555555555554,-0.22,0.11
3.408333333333333,-0.055,0.22
3.411111111111111,0.185,0.35
3.4138888888888888,0.475,0.44
3.4166666666666665,0.705,0.395
3.4194444444444443,0.82,0.155
3.422222222222222,0.78,-0.17
3.425,0.535,-0.38
3.4277777777777776,0.145,-0.41
3.4305555555555554,-0.2,-0.355
3.433333333333333,-0.42,-0.32
3.436111111111111,-0.5,-0.305
3.438888888888889,-0.48,-0.3
3.441666666666667,-0.45,-0.295
3.4444444444444446,-0.41,-0.295
3.4472222222222224,-0.4,-0.285
3.45,-0.39,-0.3
3.452777777777778,-0.39,-0.31
3.4555555555555557,-0.4,-0.305
3.4583333333333335,-0.405,-0.305
3.4611111111111112,-0.425,-0.295
3.463888888888889,-0.425,-0.27
3.466666666666667,-0.405,-0.27
3.4694444444444446,-0.395,-0.285
3.4722222222222223,-0.405,-0.305
3.475,-0.405,-0.31
3.477777777777778,-0.415,-0.3
3.4805555555555556,-0.405,-0.29
3.4833333333333334,-0.385,-0.275
3.486111111111111,-0.39,-0.285
3.488888888888889,-0.395,-0.285
3.4916666666666667,-0.395,-0.305
3.4944444444444445,-0.395,-0.29
3.4972222222222222,-0.395,-0.29
3.5,-0.385,-0.285
3.5027777777777778,-0.39,-0.285
3.5055555555555555,-0.39,-0.29
3.5083333333333333,-0.4,-0.3
3.511111111111111,-0.425,-0.295
3.513888888888889,-0.41,-0.285
3.5166666666666666,-0.4,-0.275
3.5194444444444444,-0.395,-0.29
3.522222222222222,-0.4,-0.295
3.525,-0.405,-0.275
3.5277777777777777,-0.425,-0.285
3.5305555555555554,-0.415,-0.285
3.533333333333333,-0.405,-0.26
3.536111111111111,-0.405,-0.27
3.5388888888888888,-0.405,-0.265
3.5416666666666665,-0.41,-0.285
3.5444444444444443,-0.415,-0.29
3.547222222222222,-0.405,-0.295
3.55,-0.42,-0.28
3.5527777777777776,-0.405,-0.29
3.5555555555555554,-0.41,-0.295
3.558333333333333,-0.41,-0.3
3.561111111111111,-0.42,-0.31
3.563888888888889,-0.415,-0.305
3.566666666666667,-0.405,-0.295
3.5694444444444446,-0.395,-0.3
3.5722222222222224,-0.395,-0.28
3.575,-0.395,-0.29
3.577777777777778,-0.4,-0.305
3.5805555555555557,-0.395,-0.29
3.5833333333333335,-0.395,-0.285
3.5861111111111112,-0.405,-0.305
3.588888888888889,-0.405,-0.31
3.591666666666667,-0.42,-0.315
3.5944444444444446,-0.435,-0.305
3.5972222222222223,-0.415,-0.295
3.6,-0.405,-0.29
3.602777777777778,-0.395,-0.295
3.6055555555555556,-0.39,-0.3
3.6083333333333334,-0.415,-0.305
3.611111111111111,-0.405,-0.325
3.613888888888889,-0.405,-0.31
3.6166666666666667,-0.4,-0.3
3.6194444444444445,-0.395,-0.31
3.6222222222222222,-0.395,-0.335
3.625,-0.405,-0.34
3.6277777777777778,-0.42,-0.35
3.6305555555555555,-0.415,-0.355
3.6333333333333333,-0.4,-0.34
3.636111111111111,-0.395,-0.35
3.638888888888889,-0.4,-0.365
3.6416666666666666,-0.405,-0.38
3.6444444444444444,-0.425,-0.4
3.647222222222222,-0.425,-0.385
3.65,-0.425,-0.38
3.6527777777777777,-0.42,-0.39
3.6555555555555554,-0.425,-0.4
3.658333333333333,-0.45,-0.405
3.661111111111111,-0.445,-0.405
3.6638888888888888,-0.45,-0.405
3.6666666666666665,-0.435,-0.415
3.6694444444444443,-0.445,-0.415
3.672222222222222,-0.47,-0.42
3.675,-0.455,-0.415
3.6777777777777776,-0.46,-0.425
3.6805555555555554,-0.44,-0.41
3.683333333333333,-0.435,-0.395
3.686111111111111,-0.425,-0.385
3.688888888888889,-0.43,-0.405
3.691666666666667,-0.445,-0.395
3.6944444444444446,-0.45,-0.395
3.6972222222222224,-0.445,-0.375
3.7,-0.43,-0.37
3.702777777777778,-0.42,-0.375
3.7055555555555557,-0.41,-0.375
3.7083333333333335,-0.425,-0.37
3.7111111111111112,-0.42,-0.36
3.713888888888889,-0.405,-0.345
3.716666666666667,-0.38,-0.32
3.7194444444444446,-0.37,-0.305
3.7222222222222223,-0.365,-0.305
3.725,-0.365,-0.3
3.727777777777778,-0.365,-0.285
3.7305555555555556,-0.345,-0.275
3.7333333333333334,-0.33,-0.26
3.736111111111111,-0.315,-0.245
3.738888888888889,-0.305,-0.245
3.7416666666666667,-0.305,-0.25
3.7444444444444445,-0.32,-0.255
3.7472222222222222,-0.31,-0.245
3.75,-0.31,-0.23
3.7527777777777778,-0.305,-0.235
3.7555555555555555,-0.31,-0.245
3.7583333333333333,-0.315,-0.255
3.761111111111111,-0.32,-0.255
3.763888888888889,-0.315,-0.225
3.7666666666666666,-0.305,-0.23
3.7694444444444444,-0.305,-0.235
3.772222222222222,-0.295,-0.24
3.775,-0.31,-0.25
3.7777777777777777,-0.32,-0.245
3.7805555555555554,-0.31,-0.225
3.783333333333333,-0.315,-0.215
3.786111111111111,-0.295,-0.22
3.7888888888888888,-0.3,-0.24
3.7916666666666665,-0.305,-0.25
3.7944444444444443,-0.3,-0.255
3.797222222222222,-0.285,-0.245
3.8,-0.28,-0.24
3.8027777777777776,-0.29,-0.235
3.8055555555555554,-0.295,-0.245
3.808333333333333,-0.305,-0.255
3.811111111111111,-0.325,-0.25
3.813888888888889,-0.305,-0.235
3.816666666666667,-0.3,-0.23
3.8194444444444446,-0.3,-0.25
3.8222222222222224,-0.315,-0.26
3.825,-0.325,-0.275
3.827777777777778,-0.335,-0.28
3.8305555555555557,-0.325,-0.275
3.8333333333333335,-0.315,-0.26
3.8361111111111112,-0.32,-0.27
3.838888888888889,-0.335,-0.255
3.841666666666667,-0.33,-0.265
3.8444444444444446,-0.34,-0.255
3.8472222222222223,-0.325,-0.265
3.85,-0.325,-0.26
3.852777777777778,-0.32,-0.265
3.8555555555555556,-0.315,-0.265
3.8583333333333334,-0.335,-0.275
3.861111111111111,-0.335,-0.27
3.863888888888889,-0.345,-0.265
3.8666666666666667,-0.335,-0.255
3.8694444444444445,-0.325,-0.255
3.8722222222222222,-0.33,-0.265
3.875,-0.315,-0.275
3.8777777777777778,-0.335,-0.29
3.8805555555555555,-0.33,-0.275
3.8833333333333333,-0.33,-0.26
3.886111111111111,-0.33,-0.27
3.888888888888889,-0.33,-0.265
3.8916666666666666,-0.335,-0.27
3.8944444444444444,-0.34,-0.265
3.897222222222222,-0.33,-0.265
3.9,-0.32,-0.25
3.9027777777777777,-0.315,-0.265
3.9055555555555554,-0.325,-0.265
3.908333333333333,-0.335,-0.27
3.911111111111111,-0.355,-0.27
3.9138888888888888,-0.345,-0.265
3.9166666666666665,-0.34,-0.255
3.9194444444444443,-0.335,-0.26
3.922222222222222,-0.32,-0.255
3.925,-0.325,-0.27
3.9277777777777776,-0.35,-0.27
3.9305555555555554,-0.33,-0.285
3.933333333333333,-0.315,-0.265
3.936111111111111,-0.315,-0.26
3.938888888888889,-0.33,-0.265
3.941666666666667,-0.33,-0.27
3.9444444444444446,-0.335,-0.265
3.9472222222222224,-0.335,-0.26
3.95,-0.33,-0.25
3.952777777777778,-0.33,-0.265
3.9555555555555557,-0.33,-0.265
3.9583333333333335,-0.34,-0.27
3.9611111111111112,-0.34,-0.265
3.963888888888889,-0.34,-0.255
3.966666666666667,-0.325,-0.245
3.9694444444444446,-0.325,-0.255
3.9722222222222223,-0.325,-0.275
3.975,-0.345,-0.275
3.977777777777778,-0.35,-0.275
3.9805555555555556,-0.34,-0.255
3.9833333333333334,-0.33,-0.255
3.986111111111111,-0.32,-0.26
3.988888888888889,-0.31,-0.265
3.9916666666666667,-0.305,-0.285
3.9944444444444445,-0.305,-0.28
3.9972222222222222,-0.275,-0.265
4.0,-0.27,-0.26
4.002777777777778,-0.255,-0.255
4.0055555555555555,-0.26,-0.25
4.008333333333334,-0.265,-0.255
4.011111111111111,-0.26,-0.25
4.013888888888889,-0.25,-0.24
4.016666666666667,-0.235,-0.23
4.019444444444445,-0.235,-0.235
4.022222222222222,-0.22,-0.225
4.025,-0.235,-0.235
4.027777777777778,-0.235,-0.24
4.030555555555556,-0.22,-0.225
4.033333333333333,-0.23,-0.215
4.036111111111111,-0.225,-0.235
4.038888888888889,-0.235,-0.23
4.041666666666667,-0.245,-0.225
4.044444444444444,-0.255,-0.215
4.0472222222222225,-0.24,-0.205
4.05,-0.23,-0.2
4.052777777777778,-0.23,-0.21
4.055555555555555,-0.25,-0.225
4.058333333333334,-0.255,-0.23
4.061111111111111,-0.25,-0.225
4.063888888888889,-0.23,-0.215
4.066666666666666,-0.205,-0.21
4.069444444444445,-0.195,-0.235
4.072222222222222,-0.21,-0.24
4.075,-0.23,-0.255
4.0777777777777775,-0.27,-0.245
4.080555555555556,-0.27,-0.235
4.083333333333333,-0.285,-0.23
4.086111111111111,-0.285,-0.235
4.088888888888889,-0.31,-0.245
4.091666666666667,-0.33,-0.27
4.094444444444444,-0.34,-0.26
4.097222222222222,-0.34,-0.25
4.1,-0.345,-0.24
4.102777777777778,-0.35,-0.24
4.105555555555555,-0.35,-0.255
4.108333333333333,-0.34,-0.26
4.111111111111111,-0.355,-0.265
4.113888888888889,-0.345,-0.255
4.116666666666666,-0.34,-0.245
4.1194444444444445,-0.34,-0.245
4.122222222222222,-0.345,-0.26
4.125,-0.355,-0.255
4.127777777777778,-0.37,-0.26
4.1305555555555555,-0.355,-0.255
4.133333333333334,-0.37,-0.24
4.136111111111111,-0.345,-0.24
4.138888888888889,-0.34,-0.26
4.141666666666667,-0.36,-0.26
4.144444444444445,-0.38,-0.25
4.147222222222222,-0.36,-0.24
4.15,-0.345,-0.235
4.152777777777778,-0.35,-0.24
4.155555555555556,-0.35,-0.255
4.158333333333333,-0.355,-0.27
4.161111111111111,-0.38,-0.285
4.163888888888889,-0.39,-0.29
4.166666666666667,-0.395,-0.31
4.169444444444444,-0.425,-0.33
4.1722222222222225,-0.455,-0.365
4.175,-0.475,-0.37
4.177777777777778,-0.51,-0.35
4.180555555555555,-0.545,-0.26
4.183333333333334,-0.54,-0.135
4.186111111111111,-0.495,-0.02
4.188888888888889,-0.405,0.035
4.191666666666666,-0.295,0.095
4.194444444444445,-0.16,0.185
4.197222222222222,0.04,0.315
4.2,0.315,0.45
4.2027777777777775,0.595,0.515
4.205555555555556,0.8,0.45
4.208333333333333,0.885,0.175
4.211111111111111,0.795,-0.18
4.213888888888889,0.52,-0.385
4.216666666666667,0.13,-0.395
4.219444444444444,-0.215,-0.345
4.222222222222222,-0.425,-0.31
4.225,-0.5,-0.29
4.227777777777778,-0.49,-0.275
4.230555555555555,-0.45,-0.265
4.233333333333333,-0.4,-0.235
4.236111111111111,-0.39,-0.25
4.238888888888889,-0.395,-0.265
4.241666666666666,-0.395,-0.255
4.2444444444444445,-0.4,-0.245
4.247222222222222,-0.39,-0.24
4.25,-0.38,-0.24
4.252777777777778,-0.385,-0.25
4.2555555555555555,-0.385,-0.26
4.258333333333334,-0.4,-0.265
4.261111111111111,-0.41,-0.275
4.263888888888889,-0.41,-0.255
4.266666666666667,-0.39,-0.24
4.269444444444445,-0.39,-0.245
4.272222222222222,-0.405,-0.26
4.275,-0.405,-0.26
4.277777777777778,-0.415,-0.265
4.280555555555556,-0.41,-0.25
4.283333333333333,-0.395,-0.25
4.286111111111111,-0.395,-0.245
4.288888888888889,-0.4,-0.25
4.291666666666667,-0.415,-0.265
4.294444444444444,-0.415,-0.255
4.2972222222222225,-0.415,-0.25
4.3,-0.4,-0.245
4.302777777777778,-0.39,-0.245
4.305555555555555,-0.39,-0.255
4.308333333333334,-0.41,-0.26
4.311111111111111,-0.415,-0.25
4.313888888888889,-0.405,-0.24
4.316666666666666,-0.395,-0.215
4.319444444444445,-0.395,-0.23
4.322222222222222,-0.395,-0.25
4.325,-0.405,-0.25
4.3277777777777775,-0.41,-0.255
4.330555555555556,-0.41,-0.24
4.333333333333333,-0.4,-0.22
4.336111111111111,-0.39,-0.235
4.338888888888889,-0.395,-0.235
4.341666666666667,-0.41,-0.24
4.344444444444444,-0.425,-0.255
4.347222222222222,-0.415,-0.245
4.35,-0.405,-0.225
4.352777777777778,-0.41,-0.23
4.355555555555555,-0.405,-0.235
4.358333333333333,-0.415,-0.24
4.361111111111111,-0.425,-0.24
4.363888888888889,-0.425,-0.24
4.366666666666666,-0.41,-0.23
4.3694444444444445,-0.395,-0.245
4.372222222222222,-0.39,-0.255
4.375,-0.4,-0.25
4.377777777777778,-0.41,-0.25
4.3805555555555555,-0.41,-0.235
4.383333333333334,-0.4,-0.24
4.386111111111111,-0.39,-0.235
4.388888888888889,-0.41,-0.255
4.391666666666667,-0.42,-0.255
4.394444444444445,-0.42,-0.255
4.397222222222222,-0.415,-0.25
4.4,-0.415,-0.235
4.402777777777778,-0.405,-0.26
4.405555555555556,-0.42,-0.255
4.408333333333333,-0.415,-0.27
4.411111111111111,-0.425,-0.285
4.413888888888889,-0.41,-0.285
4.416666666666667,-0.4,-0.28
4.419444444444444,-0.405,-0.285
4.4222222222222225,-0.4,-0.285
4.425,-0.4,-0.305
4.427777777777778,-0.41,-0.295
4.430555555555555,-0.4,-0.285
4.433333333333334,-0.395,-0.29
4.436111111111111,-0.395,-0.305
4.438888888888889,-0.405,-0.32
4.441666666666666,-0.41,-0.335
4.444444444444445,-0.425,-0.34
4.447222222222222,-0.425,-0.315
4.45,-0.41,-0.315
4.4527777777777775,-0.41,-0.33
4.455555555555556,-0.42,-0.345
4.458333333333333,-0.43,-0.35
4.461111111111111,-0.445,-0.355
4.463888888888889,-0.44,-0.365
4.466666666666667,-0.435,-0.355
4.469444444444444,-0.43,-0.365
4.472222222222222,-0.43,-0.37
4.475,-0.45,-0.375
4.477777777777778,-0.445,-0.375
4.480555555555555,-0.445,-0.37
4.483333333333333,-0.435,-0.355
4.486111111111111,-0.435,-0.36
4.488888888888889,-0.445,-0.34
4.491666666666666,-0.44,-0.34
4.4944444444444445,-0.45,-0.33
4.497222222222222,-0.43,-0.315
4.5,-0.43,-0.29
4.502777777777778,-0.415,-0.275
4.5055555555555555,-0.4,-0.265
4.508333333333334,-0.4,-0.26
4.511111111111111,-0.385,-0.245
4.513888888888889,-0.365,-0.225
4.516666666666667,-0.335,-0.205
4.519444444444445,-0.33,-0.2
4.522222222222222,-0.325,-0.19
4.525,-0.33,-0.2
4.527777777777778,-0.33,-0.185
4.530555555555556,-0.31,-0.175
4.533333333333333,-0.295,-0.16
4.536111111111111,-0.285,-0.155
4.538888888888889,-0.29,-0.165
4.541666666666667,-0.29,-0.16
4.544444444444444,-0.31,-0.17
4.5472222222222225,-0.295,-0.15
4.55,-0.285,-0.145
4.552777777777778,-0.28,-0.15
4.555555555555555,-0.3,-0.145
4.558333333333334,-0.29,-0.145
4.561111111111111,-0.295,-0.155
4.563888888888889,-0.29,-0.15
4.566666666666666,-0.28,-0.135
4.569444444444445,-0.275,-0.145
4.572222222222222,-0.275,-0.145
4.575,-0.29,-0.15
4.5777777777777775,-0.29,-0.145
4.580555555555556,-0.285,-0.14
4.583333333333333,-0.27,-0.13
4.586111111111111,-0.27,-0.135
4.588888888888889,-0.27,-0.14
4.591666666666667,-0.275,-0.145
4.594444444444444,-0.29,-0.165
4.597222222222222,-0.285,-0.155
4.6,-0.275,-0.145
4.602777777777778,-0.275,-0.15
4.605555555555555,-0.29,-0.16
4.608333333333333,-0.295,-0.16
4.611111111111111,-0.305,-0.16
4.613888888888889,-0.295,-0.145
4.616666666666666,-0.295,-0.14
4.6194444444444445,-0.285,-0.15
4.622222222222222,-0.29,-0.165
4.625,-0.3,-0.17
4.627777777777778,-0.305,-0.165
4.6305555555555555,-0.31,-0.165
4.633333333333334,-0.295,-0.15
4.636111111111111,-0.3,-0.15
4.638888888888889,-0.305,-0.165
4.641666666666667,-0.31,-0.17
4.644444444444445,-0.325,-0.18
4.647222222222222,-0.325,-0.165
4.65,-0.315,-0.155
4.652777777777778,-0.31,-0.16
4.655555555555556,-0.315,-0.165
4.658333333333333,-0.315,-0.175
4.661111111111111,-0.325,-0.18
4.663888888888889,-0.32,-0.165
4.666666666666667,-0.31,-0.15
4.669444444444444,-0.32,-0.17
4.6722222222222225,-0.315,-0.17
4.675,-0.33,-0.185
4.677777777777778,-0.33,-0.175
4.680555555555555,-0.32,-0.175
4.683333333333334,-0.31,-0.16
4.686111111111111,-0.31,-0.165
4.688888888888889,-0.31,-0.17
4.691666666666666,-0.33,-0.18
4.694444444444445,-0.335,-0.175
4.697222222222222,-0.33,-0.17
4.7,-0.32,-0.16
4.7027777777777775,-0.325,-0.16
4.705555555555556,-0.325,-0.17
4.708333333333333,-0.33,-0.19
4.711111111111111,-0.335,-0.165
4.713888888888889,-0.33,-0.16
4.716666666666667,-0.325,-0.155
4.719444444444444,-0.325,-0.16
4.722222222222222,-0.32,-0.155
4.725,-0.325,-0.165
4.727777777777778,-0.33,-0.185
4.730555555555555,-0.325,-0.175
4.733333333333333,-0.315,-0.15
4.736111111111111,-0.305,-0.155
4.738888888888889,-0.325,-0.165
4.741666666666666,-0.315,-0.17
4.7444444444444445,-0.335,-0.17
4.747222222222222,-0.33,-0.165
4.75,-0.31,-0.15
4.752777777777778,-0.32,-0.16
4.7555555555555555,-0.33,-0.17
4.758333333333334,-0.33,-0.175
4.761111111111111,-0.335,-0.18
4.763888888888889,-0.33,-0.155
4.766666666666667,-0.33,-0.15
4.769444444444445,-0.32,-0.145
4.772222222222222,-0.32,-0.16
4.775,-0.33,-0.165
4.777777777777778,-0.33,-0.16
4.780555555555556,-0.325,-0.16
4.783333333333333,-0.315,-0.145
4.786111111111111,-0.315,-0.15
4.788888888888889,-0.315,-0.15
4.791666666666667,-0.33,-0.16
4.794444444444444,-0.33,-0.16
4.7972222222222225,-0.32,-0.15
4.8,-0.315,-0.15
4.802777777777778,-0.305,-0.15
4.805555555555555,-0.305,-0.155
4.808333333333334,-0.295,-0.16
4.811111111111111,-0.315,-0.16
4.813888888888889,-0.3,-0.15
4.816666666666666,-0.275,-0.13
4.819444444444445,-0.255,-0.15
4.822222222222222,-0.255,-0.155
4.825,-0.26,-0.16
4.8277777777777775,-0.265,-0.15
4.830555555555556,-0.255,-0.125
4.833333333333333,-0.235,-0.12
4.836111111111111,-0.23,-0.115
4.838888888888889,-0.225,-0.125
4.841666666666667,-0.22,-0.135
4.844444444444444,-0.22,-0.14
4.847222222222222,-0.215,-0.13
4.85,-0.2,-0.105
4.852777777777778,-0.205,-0.105
4.855555555555555,-0.205,-0.1
4.858333333333333,-0.225,-0.105
4.861111111111111,-0.235,-0.09
4.863888888888889,-0.24,-0.08
4.866666666666666,-0.23,-0.075
4.8694444444444445,-0.215,-0.09
4.872222222222222,-0.24,-0.09
4.875,-0.24,-0.1
4.877777777777778,-0.25,-0.1
4.8805555555555555,-0.235,-0.095
4.883333333333334,-0.21,-0.09
4.886111111111111,-0.2,-0.11
4.888888888888889,-0.22,-0.125
4.891666666666667,-0.255,-0.13
4.894444444444445,-0.275,-0.12
4.897222222222222,-0.285,-0.12
4.9,-0.3,-0.11
4.902777777777778,-0.305,-0.11
4.905555555555556,-0.32,-0.12
4.908333333333333,-0.33,-0.13
4.911111111111111,-0.325,-0.14
4.913888888888889,-0.32,-0.145
4.916666666666667,-0.33,-0.125
4.919444444444444,-0.33,-0.13
4.9222222222222225,-0.335,-0.15
4.925,-0.34,-0.145
4.927777777777778,-0.345,-0.14
4.930555555555555,-0.34,-0.14
4.933333333333334,-0.335,-0.12
4.936111111111111,-0.32,-0.135
4.938888888888889,-0.325,-0.145
4.941666666666666,-0.335,-0.16
4.944444444444445,-0.345,-0.15
4.947222222222222,-0.345,-0.135
4.95,-0.345,-0.125
4.9527777777777775,-0.335,-0.135
4.955555555555556,-0.34,-0.145
4.958333333333333,-0.345,-0.15
4.961111111111111,-0.355,-0.16
4.963888888888889,-0.34,-0.145
4.966666666666667,-0.34,-0.135
4.969444444444444,-0.34,-0.135
4.972222222222222,-0.34,-0.125
4.975,-0.345,-0.16
4.977777777777778,-0.355,-0.175
4.980555555555555,-0.365,-0.195
4.983333333333333,-0.37,-0.21
4.986111111111111,-0.405,-0.23
4.988888888888889,-0.445,-0.27
4.991666666666666,-0.48,-0.29
4.9944444444444445,-0.495,-0.28
4.997222222222222,-0.52,-0.195
5.0,-0.535,-0.05
5.002777777777778,-0.505,0.085
5.0055555555555555,-0.415,0.195
5.008333333333334,-0.28,0.305
5.011111111111111,-0.135,0.42
5.013888888888889,0.065,0.565
5.016666666666667,0.3,0.705
5.019444444444445,0.58,0.8
5.022222222222222,0.81,0.795
5.025,0.945,0.595
5.027777777777778,0.92,0.235
5.030555555555556,0.775,-0.075
5.033333333333333,0.445,-0.19
5.036111111111111,0.02,-0.185
5.038888888888889,-0.295,-0.155
5.041666666666667,-0.445,-0.17
5.044444444444444,-0.47,-0.165
5.0472222222222225,-0.425,-0.155
5.05,-0.38,-0.145
5.052777777777778,-0.36,-0.155
5.055555555555555,-0.36,-0.19
5.058333333333334,-0.37,-0.2
5.061111111111111,-0.38,-0.195
5.063888888888889,-0.38,-0.175
5.066666666666666,-0.375,-0.175
5.069444444444445,-0.37,-0.18
5.072222222222222,-0.365,-0.185
5.075,-0.37,-0.2
5.0777777777777775,-0.385,-0.195
5.080555555555556,-0.385,-0.2
5.083333333333333,-0.375,-0.195
5.086111111111111,-0.37,-0.19
5.088888888888889,-0.37,-0.195
5.091666666666667,-0.385,-0.2
5.094444444444444,-0.395,-0.2
5.097222222222222,-0.385,-0.19
5.1,-0.385,-0.18
5.102777777777778,-0.39,-0.185
5.105555555555555,-0.385,-0.195
5.108333333333333,-0.395,-0.21
5.111111111111111,-0.41,-0.21
5.113888888888889,-0.4,-0.175
5.116666666666666,-0.395,-0.19
5.1194444444444445,-0.38,-0.185
5.122222222222222,-0.395,-0.185
5.125,-0.395,-0.195
5.127777777777778,-0.4,-0.2
5.1305555555555555,-0.4,-0.195
5.133333333333334,-0.395,-0.18
5.136111111111111,-0.39,-0.19
5.138888888888889,-0.39,-0.195
5.141666666666667,-0.395,-0.19
5.144444444444445,-0.405,-0.195
5.147222222222222,-0.39,-0.175
5.15,-0.385,-0.175
5.152777777777778,-0.375,-0.185
5.155555555555556,-0.375,-0.19
5.158333333333333,-0.38,-0.195
5.161111111111111,-0.39,-0.19
5.163888888888889,-0.385,-0.185
5.166666666666667,-0.37,-0.17
5.169444444444444,-0.37,-0.17
5.1722222222222225,-0.37,-0.19
5.175,-0.375,-0.2
5.177777777777778,-0.385,-0.2
5.180555555555555,-0.37,-0.18
5.183333333333334,-0.39,-0.175
5.186111111111111,-0.375,-0.195
5.188888888888889,-0.37,-0.175
5.191666666666666,-0.38,-0.19
5.194444444444445,-0.39,-0.19
5.197222222222222,-0.39,-0.19
5.2,-0.385,-0.18
5.2027777777777775,-0.375,-0.19
5.205555555555556,-0.375,-0.21
5.208333333333333,-0.385,-0.205
5.211111111111111,-0.395,-0.2
5.213888888888889,-0.39,-0.21
5.216666666666667,-0.385,-0.195
5.219444444444444,-0.375,-0.205
5.222222222222222,-0.38,-0.215
5.225,-0.385,-0.23
5.227777777777778,-0.39,-0.215
5.230555555555555,-0.38,-0.225
5.233333333333333,-0.38,-0.205
5.236111111111111,-0.37,-0.215
5.238888888888889,-0.37,-0.235
5.241666666666666,-0.365,-0.245
5.2444444444444445,-0.39,-0.245
5.247222222222222,-0.365,-0.24
5.25,-0.365,-0.245
5.252777777777778,-0.36,-0.235
5.2555555555555555,-0.375,-0.26
5.258333333333334,-0.38,-0.265
5.261111111111111,-0.4,-0.27
5.263888888888889,-0.39,-0.265
5.266666666666667,-0.375,-0.265
5.269444444444445,-0.375,-0.27
5.272222222222222,-0.37,-0.285
5.275,-0.385,-0.3
5.277777777777778,-0.39,-0.295
5.280555555555556,-0.39,-0.295
5.283333333333333,-0.39,-0.295
5.286111111111111,-0.39,-0.305
5.288888888888889,-0.375,-0.31
5.291666666666667,-0.385,-0.32
5.294444444444444,-0.395,-0.325
5.2972222222222225,-0.38,-0.32
5.3,-0.37,-0.31
5.302777777777778,-0.375,-0.32
5.305555555555555,-0.375,-0.32
5.308333333333334,-0.39,-0.325
5.311111111111111,-0.405,-0.31
5.313888888888889,-0.375,-0.28
5.316666666666666,-0.37,-0.28
5.319444444444445,-0.36,-0.28
5.322222222222222,-0.375,-0.265
5.325,-0.385,-0.265
5.3277777777777775,-0.38,-0.25
5.330555555555556,-0.37,-0.225
5.333333333333333,-0.36,-0.2
5.336111111111111,-0.345,-0.195
5.338888888888889,-0.345,-0.19
5.341666666666667,-0.33,-0.18
5.344444444444444,-0.33,-0.17
5.347222222222222,-0.315,-0.15
5.35,-0.31,-0.135
5.352777777777778,-0.295,-0.115
5.355555555555555,-0.285,-0.125
5.358333333333333,-0.285,-0.13
5.361111111111111,-0.295,-0.12
5.363888888888889,-0.28,-0.105
5.366666666666666,-0.27,-0.1
5.3694444444444445,-0.28,-0.1
5.372222222222222,-0.28,-0.1
5.375,-0.28,-0.115
5.377777777777778,-0.29,-0.12
5.3805555555555555,-0.29,-0.105
5.383333333333334,-0.28,-0.1
5.386111111111111,-0.275,-0.105
5.388888888888889,-0.28,-0.115
5.391666666666667,-0.285,-0.12
5.394444444444445,-0.29,-0.11
5.397222222222222,-0.29,-0.105
5.4,-0.28,-0.095
5.402777777777778,-0.28,-0.1
5.405555555555556,-0.285,-0.11
5.408333333333333,-0.29,-0.12
5.411111111111111,-0.3,-0.12
5.413888888888889,-0.295,-0.115
5.416666666666667,-0.285,-0.105
5.419444444444444,-0.28,-0.105
5.4222222222222225,-0.285,-0.095
5.425,-0.285,-0.105
5.427777777777778,-0.295,-0.12
5.430555555555555,-0.285,-0.115
5.433333333333334,-0.28,-0.105
5.436111111111111,-0.275,-0.11
5.438888888888889,-0.28,-0.125
5.441666666666666,-0.29,-0.115
5.444444444444445,-0.31,-0.13
5.447222222222222,-0.305,-0.115
5.45,-0.285,-0.095
5.4527777777777775,-0.27,-0.1
5.455555555555556,-0.27,-0.11
5.458333333333333,-0.275,-0.115
5.461111111111111,-0.285,-0.115
5.463888888888889,-0.285,-0.105
5.466666666666667,-0.27,-0.1
5.469444444444444,-0.265,-0.11
5.472222222222222,-0.265,-0.1
5.475,-0.265,-0.1
5.477777777777778,-0.28,-0.105
5.480555555555555,-0.265,-0.095
5.483333333333333,-0.245,-0.095
5.486111111111111,-0.235,-0.095
5.488888888888889,-0.235,-0.11
5.491666666666666,-0.25,-0.115
5.4944444444444445,-0.25,-0.11
5.497222222222222,-0.245,-0.105
5.5,-0.215,-0.105
5.502777777777778,-0.22,-0.115
5.5055555555555555,-0.245,-0.115
5.508333333333334,-0.255,-0.135
5.511111111111111,-0.23,-0.125
5.513888888888889,-0.205,-0.135
5.516666666666667,-0.21,-0.125
5.519444444444445,-0.22,-0.13
5.522222222222222,-0.23,-0.15
5.525,-0.24,-0.155
5.527777777777778,-0.24,-0.165
5.530555555555556,-0.245,-0.165
5.533333333333333,-0.25,-0.17
5.536111111111111,-0.27,-0.175
5.538888888888889,-0.285,-0.17
5.541666666666667,-0.315,-0.175
5.544444444444444,-0.32,-0.17
5.5472222222222225,-0.32,-0.165
5.55,-0.31,-0.16
5.552777777777778,-0.33,-0.16
5.555555555555555,-0.34,-0.17
5.558333333333334,-0.345,-0.18
5.561111111111111,-0.36,-0.17
5.563888888888889,-0.365,-0.155
5.566666666666666,-0.36,-0.155
5.569444444444445,-0.35,-0.16
5.572222222222222,-0.355,-0.16
5.575,-0.375,-0.175
5.5777777777777775,-0.385,-0.17
5.580555555555556,-0.375,-0.155
5.583333333333333,-0.37,-0.15
5.586111111111111,-0.365,-0.16
5.588888888888889,-0.365,-0.155
5.591666666666667,-0.37,-0.165
5.594444444444444,-0.38,-0.16
5.597222222222222,-0.36,-0.15
5.6,-0.35,-0.15
5.602777777777778,-0.355,-0.145
5.605555555555555,-0.355,-0.155
5.608333333333333,-0.35,-0.165
5.611111111111111,-0.365,-0.155
5.613888888888889,-0.35,-0.135
5.616666666666666,-0.35,-0.13
5.6194444444444445,-0.34,-0.145
5.622222222222222,-0.355,-0.155
5.625,-0.35,-0.16
5.627777777777778,-0.375,-0.16
5.6305555555555555,-0.365,-0.175
5.633333333333334,-0.375,-0.19
5.636111111111111,-0.4,-0.235
5.638888888888889,-0.43,-0.25
5.641666666666667,-0.475,-0.295
5.644444444444445,-0.52,-0.315
5.647222222222222,-0.52,-0.295
5.65,-0.55,-0.19
5.652777777777778,-0.57,-0.085
5.655555555555556,-0.54,0.06
5.658333333333333,-0.445,0.175
5.661111111111111,-0.305,0.265
5.663888888888889,-0.14,0.38
5.666666666666667,0.025,0.485
5.669444444444444,0.26,0.59
5.6722222222222225,0.51,0.665
5.675,0.735,0.665
5.677777777777778,0.845,0.5
5.680555555555555,0.875,0.205
5.683333333333334,0.735,-0.075
5.686111111111111,0.4,-0.215
5.688888888888889,-0.025,-0.205
5.691666666666666,-0.335,-0.18
5.694444444444445,-0.48,-0.175
5.697222222222222,-0.47,-0.165
5.7,-0.415,-0.145
5.7027777777777775,-0.375,-0.145
5.705555555555556,-0.365,-0.16
5.708333333333333,-0.385,-0.165
5.711111111111111,-0.4,-0.17
5.713888888888889,-0.38,-0.155
5.716666666666667,-0.39,-0.155
5.719444444444444,-0.375,-0.155
5.722222222222222,-0.385,-0.17
5.725,-0.395,-0.175
5.727777777777778,-0.405,-0.17
5.730555555555555,-0.39,-0.155
5.733333333333333,-0.38,-0.155
5.736111111111111,-0.385,-0.16
5.738888888888889,-0.385,-0.165
5.741666666666666,-0.395,-0.18
5.7444444444444445,-0.4,-0.175
5.747222222222222,-0.405,-0.17
5.75,-0.4,-0.16
5.752777777777778,-0.39,-0.16
5.7555555555555555,-0.39,-0.17
5.758333333333334,-0.395,-0.18
5.761111111111111,-0.4,-0.18
5.763888888888889,-0.39,-0.17
5.766666666666667,-0.385,-0.165
5.769444444444445,-0.39,-0.165
5.772222222222222,-0.385,-0.175
5.775,-0.41,-0.18
5.777777777777778,-0.42,-0.185
5.780555555555556,-0.405,-0.17
5.783333333333333,-0.41,-0.16
5.786111111111111,-0.39,-0.165
5.788888888888889,-0.39,-0.175
5.791666666666667,-0.39,-0.175
5.794444444444444,-0.4,-0.175
5.7972222222222225,-0.4,-0.18
5.8,-0.39,-0.17
5.802777777777778,-0.375,-0.16
5.805555555555555,-0.38,-0.17
5.808333333333334,-0.395,-0.18
5.811111111111111,-0.4,-0.185
5.813888888888889,-0.39,-0.17
5.816666666666666,-0.4,-0.16
5.819444444444445,-0.39,-0.18
5.822222222222222,-0.395,-0.18
5.825,-0.41,-0.185
5.8277777777777775,-0.415,-0.185
5.830555555555556,-0.405,-0.165
5.833333333333333,-0.385,-0.155
5.836111111111111,-0.385,-0.17
5.838888888888889,-0.38,-0.175
5.841666666666667,-0.4,-0.195
5.844444444444444,-0.4,-0.195
5.847222222222222,-0.395,-0.19
5.85,-0.39,-0.175
5.852777777777778,-0.38,-0.175
5.855555555555555,-0.375,-0.19
5.858333333333333,-0.395,-0.19
5.861111111111111,-0.395,-0.19
5.863888888888889,-0.385,-0.185
5.866666666666666,-0.38,-0.19
5.8694444444444445,-0.375,-0.215
5.872222222222222,-0.385,-0.22
5.875,-0.39,-0.215
5.877777777777778,-0.4,-0.225
5.8805555555555555,-0.4,-0.215
5.883333333333334,-0.385,-0.2
5.886111111111111,-0.38,-0.23
5.888888888888889,-0.395,-0.225
5.891666666666667,-0.39,-0.245
5.894444444444445,-0.4,-0.24
5.897222222222222,-0.395,-0.245
5.9,-0.385,-0.22
5.902777777777778,-0.38,-0.245
5.905555555555556,-0.385,-0.26
5.908333333333333,-0.395,-0.28
5.911111111111111,-0.405,-0.28
5.913888888888889,-0.4,-0.285
5.916666666666667,-0.39,-0.27
5.919444444444444,-0.38,-0.285
5.9222222222222225,-0.38,-0.295
5.925,-0.385,-0.305
5.927777777777778,-0.405,-0.305
5.930555555555555,-0.395,-0.315
5.933333333333334,-0.4,-0.305
5.936111111111111,-0.39,-0.31
5.938888888888889,-0.4,-0.33
5.941666666666666,-0.405,-0.325
5.944444444444445,-0.425,-0.33
5.947222222222222,-0.42,-0.315
5.95,-0.405,-0.31
5.9527777777777775,-0.4,-0.315
5.955555555555556,-0.405,-0.31
5.958333333333333,-0.405,-0.32
5.961111111111111,-0.415,-0.305
5.963888888888889,-0.4,-0.29
5.966666666666667,-0.39,-0.275
5.969444444444444,-0.38,-0.27
5.972222222222222,-0.385,-0.265
5.975,-0.395,-0.265
5.977777777777778,-0.405,-0.255
5.980555555555555,-0.39,-0.245
5.983333333333333,-0.37,-0.225
5.986111111111111,-0.37,-0.215
5.988888888888889,-0.37,-0.215
5.991666666666666,-0.385,-0.215
5.9944444444444445,-0.37,-0.21
5.997222222222222,-0.355,-0.205
6.0,-0.345,-0.185
6.002777777777778,-0.34,-0.18
6.0055555555555555,-0.335,-0.19
6.008333333333334,-0.34,-0.19
6.011111111111111,-0.355,-0.17
6.013888888888889,-0.335,-0.155
6.016666666666667,-0.325,-0.14
6.019444444444445,-0.31,-0.145
6.022222222222222,-0.305,-0.165
6.025,-0.305,-0.16
6.027777777777778,-0.32,-0.16
6.030555555555556,-0.315,-0.15
6.033333333333333,-0.31,-0.145
6.036111111111111,-0.305,-0.14
6.038888888888889,-0.305,-0.15
6.041666666666667,-0.33,-0.15
6.044444444444444,-0.325,-0.17
6.0472222222222225,-0.345,-0.155
6.05,-0.325,-0.145
6.052777777777778,-0.315,-0.13
6.055555555555555,-0.315,-0.14
6.058333333333334,-0.305,-0.15
6.061111111111111,-0.31,-0.145
6.063888888888889,-0.31,-0.15
6.066666666666666,-0.3,-0.135
6.069444444444445,-0.305,-0.14
6.072222222222222,-0.305,-0.155
6.075,-0.315,-0.15
6.0777777777777775,-0.32,-0.165
6.080555555555556,-0.325,-0.145
6.083333333333333,-0.315,-0.145
6.086111111111111,-0.305,-0.155
6.088888888888889,-0.315,-0.16
6.091666666666667,-0.325,-0.16
6.094444444444444,-0.325,-0.175
6.097222222222222,-0.33,-0.155
6.1,-0.315,-0.155
6.102777777777778,-0.315,-0.15
6.105555555555555,-0.31,-0.16
6.108333333333333,-0.33,-0.165
6.111111111111111,-0.34,-0.165
6.113888888888889,-0.335,-0.175
6.116666666666666,-0.33,-0.165
6.1194444444444445,-0.345,-0.165
6.122222222222222,-0.355,-0.165
6.125,-0.365,-0.17
6.127777777777778,-0.37,-0.165
6.1305555555555555,-0.345,-0.16
6.133333333333334,-0.34,-0.16
6.136111111111111,-0.34,-0.165
6.138888888888889,-0.345,-0.17
6.141666666666667,-0.36,-0.195
6.144444444444445,-0.365,-0.185
6.147222222222222,-0.36,-0.18
6.15,-0.36,-0.17
6.152777777777778,-0.345,-0.165
6.155555555555556,-0.355,-0.185
6.158333333333333,-0.365,-0.18
6.161111111111111,-0.35,-0.185
6.163888888888889,-0.36,-0.17
6.166666666666667,-0.35,-0.175
6.169444444444444,-0.34,-0.175
6.1722222222222225,-0.345,-0.175
6.175,-0.355,-0.18
6.177777777777778,-0.37,-0.175
6.180555555555555,-0.35,-0.155
6.183333333333334,-0.35,-0.16
6.186111111111111,-0.35,-0.17
6.188888888888889,-0.345,-0.18
6.191666666666666,-0.35,-0.2
6.194444444444445,-0.355,-0.195
6.197222222222222,-0.36,-0.165
6.2,-0.345,-0.16
6.2027777777777775,-0.355,-0.16
6.205555555555556,-0.35,-0.165
6.208333333333333,-0.36,-0.185
6.211111111111111,-0.37,-0.19
6.213888888888889,-0.355,-0.18
6.216666666666667,-0.355,-0.17
6.219444444444444,-0.35,-0.17
6.222222222222222,-0.355,-0.17
6.225,-0.36,-0.18
6.227777777777778,-0.39,-0.18
6.230555555555555,-0.385,-0.17
6.233333333333333,-0.36,-0.18
6.236111111111111,-0.36,-0.18
6.238888888888889,-0.37,-0.2
6.241666666666666,-0.37,-0.195
6.2444444444444445,-0.39,-0.195
6.247222222222222,-0.375,-0.155
6.25,-0.37,-0.145
6.252777777777778,-0.35,-0.165
6.2555555555555555,-0.34,-0.18
6.258333333333334,-0.345,-0.185
6.261111111111111,-0.36,-0.18
6.263888888888889,-0.36,-0.17
6.266666666666667,-0.35,-0.16
6.269444444444445,-0.35,-0.16
6.272222222222222,-0.335,-0.17
6.275,-0.36,-0.18
6.277777777777778,-0.365,-0.19
6.280555555555556,-0.365,-0.18
6.283333333333333,-0.36,-0.165
6.286111111111111,-0.36,-0.17
6.288888888888889,-0.365,-0.185
6.291666666666667,-0.375,-0.195
6.294444444444444,-0.385,-0.185
6.2972222222222225,-0.385,-0.185
6.3,-0.365,-0.185
6.302777777777778,-0.37,-0.185
6.305555555555555,-0.375,-0.19
6.308333333333334,-0.37,-0.18
6.311111111111111,-0.375,-0.19
6.313888888888889,-0.365,-0.19
6.316666666666666,-0.355,-0.18
6.319444444444445,-0.355,-0.19
6.322222222222222,-0.36,-0.19
6.325,-0.365,-0.195
6.3277777777777775,-0.37,-0.195
6.330555555555556,-0.36,-0.185
6.333333333333333,-0.35,-0.175
6.336111111111111,-0.34,-0.195
6.338888888888889,-0.345,-0.18
6.341666666666667,-0.34,-0.18
6.344444444444444,-0.35,-0.185
6.347222222222222,-0.345,-0.19
6.35,-0.35,-0.175
6.352777777777778,-0.36,-0.19
6.355555555555555,-0.35,-0.19
6.358333333333333,-0.36,-0.21
6.361111111111111,-0.37,-0.205
6.363888888888889,-0.36,-0.185
6.366666666666666,-0.36,-0.18
6.3694444444444445,-0.355,-0.18
6.372222222222222,-0.36,-0.19
6.375,-0.375,-0.215
6.377777777777778,-0.375,-0.22
6.3805555555555555,-0.37,-0.205
6.383333333333334,-0.35,-0.195
6.386111111111111,-0.355,-0.19
6.388888888888889,-0.36,-0.195
6.391666666666667,-0.365,-0.215
6.394444444444445,-0.375,-0.235
6.397222222222222,-0.37,-0.21
6.4,-0.365,-0.2
6.402777777777778,-0.36,-0.21
6.405555555555556,-0.355,-0.205
6.408333333333333,-0.36,-0.215
6.411111111111111,-0.36,-0.215
6.413888888888889,-0.35,-0.205
6.416666666666667,-0.34,-0.2
6.419444444444444,-0.345,-0.19
6.4222222222222225,-0.345,-0.22
6.425,-0.355,-0.225
6.427777777777778,-0.36,-0.225
6.430555555555555,-0.36,-0.205
6.433333333333334,-0.365,-0.2
6.436111111111111,-0.345,-0.205
6.438888888888889,-0.355,-0.205
6.441666666666666,-0.35,-0.21
6.444444444444445,-0.36,-0.21
6.447222222222222,-0.355,-0.195
6.45,-0.36,-0.195
6.4527777777777775,-0.345,-0.195
6.455555555555556,-0.335,-0.2
6.458333333333333,-0.33,-0.225
6.461111111111111,-0.33,-0.225
6.463888888888889,-0.31,-0.205
6.466666666666667,-0.305,-0.19
6.469444444444444,-0.3,-0.195
6.472222222222222,-0.305,-0.19
6.475,-0.295,-0.2
6.477777777777778,-0.305,-0.185
6.480555555555555,-0.285,-0.18
6.483333333333333,-0.275,-0.165
6.486111111111111,-0.265,-0.17
6.488888888888889,-0.255,-0.18
6.491666666666666,-0.255,-0.175
6.4944444444444445,-0.26,-0.17
6.497222222222222,-0.265,-0.165
6.5,-0.255,-0.15
6.502777777777778,-0.255,-0.155
6.5055555555555555,-0.26,-0.165
6.508333333333334,-0.28,-0.17
6.511111111111111,-0.29,-0.165
6.513888888888889,-0.28,-0.165
6.516666666666667,-0.27,-0.155
6.519444444444445,-0.255,-0.17
6.522222222222222,-0.275,-0.18
6.525,-0.29,-0.17
6.527777777777778,-0.32,-0.165
6.530555555555556,-0.3,-0.16
6.533333333333333,-0.295,-0.16
6.536111111111111,-0.27,-0.18
6.538888888888889,-0.265,-0.19
6.541666666666667,-0.27,-0.205
6.544444444444444,-0.285,-0.19
6.5472222222222225,-0.3,-0.19
6.55,-0.31,-0.17
6.552777777777778,-0.315,-0.185
6.555555555555555,-0.32,-0.19
6.558333333333334,-0.35,-0.195
6.561111111111111,-0.37,-0.225
6.563888888888889,-0.365,-0.215
6.566666666666666,-0.365,-0.2
6.569444444444445,-0.365,-0.205
6.572222222222222,-0.37,-0.205
6.575,-0.37,-0.205
6.5777777777777775,-0.37,-0.22
6.580555555555556,-0.38,-0.21
6.583333333333333,-0.36,-0.21
6.586111111111111,-0.375,-0.21
6.588888888888889,-0.375,-0.215
6.591666666666667,-0.4,-0.225
6.594444444444444,-0.42,-0.235
6.597222222222222,-0.405,-0.23
6.6,-0.4,-0.205
6.602777777777778,-0.385,-0.215
6.605555555555555,-0.38,-0.225
6.608333333333333,-0.4,-0.225
6.611111111111111,-0.415,-0.22
6.613888888888889,-0.405,-0.22
6.616666666666666,-0.395,-0.215
6.6194444444444445,-0.395,-0.225
6.622222222222222,-0.395,-0.225
6.625,-0.41,-0.255
6.627777777777778,-0.43,-0.275
6.6305555555555555,-0.44,-0.29
6.633333333333334,-0.455,-0.29
6.636111111111111,-0.49,-0.315
6.638888888888889,-0.485,-0.33
6.641666666666667,-0.52,-0.305
6.644444444444445,-0.57,-0.245
6.647222222222222,-0.575,-0.115
6.65,-0.525,-0.025
6.652777777777778,-0.42,0.03
6.655555555555556,-0.305,0.08
6.658333333333333,-0.19,0.155
6.661111111111111,-0.02,0.265
6.663888888888889,0.22,0.385
6.666666666666667,0.485,0.5
6.669444444444444,0.715,0.545
6.6722222222222225,0.845,0.45
6.675,0.885,0.215
6.677777777777778,0.79,-0.09
6.680555555555555,0.56,-0.325
6.683333333333334,0.225,-0.39
6.686111111111111,-0.07,-0.385
6.688888888888889,-0.285,-0.365
6.691666666666666,-0.425,-0.335
6.694444444444445,-0.5,-0.295
6.697222222222222,-0.55,-0.285
6.7,-0.535,-0.27
6.7027777777777775,-0.5,-0.265
6.705555555555556,-0.465,-0.27
6.708333333333333,-0.45,-0.275
6.711111111111111,-0.45,-0.285
6.713888888888889,-0.435,-0.265
6.716666666666667,-0.42,-0.25
6.719444444444444,-0.41,-0.26
6.722222222222222,-0.41,-0.26
6.725,-0.415,-0.265
6.727777777777778,-0.42,-0.27
6.730555555555555,-0.425,-0.265
6.733333333333333,-0.42,-0.245
6.736111111111111,-0.43,-0.26
6.738888888888889,-0.43,-0.255
6.741666666666666,-0.44,-0.28
6.7444444444444445,-0.45,-0.26
6.747222222222222,-0.45,-0.25
6.75,-0.43,-0.25
6.752777777777778,-0.43,-0.255
6.7555555555555555,-0.43,-0.255
6.758333333333334,-0.445,-0.26
6.761111111111111,-0.445,-0.26
6.763888888888889,-0.44,-0.255
6.766666666666667,-0.425,-0.225
6.769444444444445,-0.43,-0.24
6.772222222222222,-0.43,-0.245
6.775,-0.425,-0.265
6.777777777777778,-0.445,-0.275
6.780555555555556,-0.445,-0.25
6.783333333333333,-0.43,-0.245
6.786111111111111,-0.435,-0.23
6.788888888888889,-0.435,-0.24
6.791666666666667,-0.445,-0.255
6.794444444444444,-0.445,-0.25
6.7972222222222225,-0.435,-0.25
6.8,-0.43,-0.245
6.802777777777778,-0.425,-0.235
6.805555555555555,-0.43,-0.24
6.808333333333334,-0.43,-0.25
6.811111111111111,-0.44,-0.25
6.813888888888889,-0.42,-0.245
6.816666666666666,-0.43,-0.22
6.819444444444445,-0.425,-0.245
6.822222222222222,-0.43,-0.245
6.825,-0.44,-0.24
6.8277777777777775,-0.44,-0.255
6.830555555555556,-0.43,-0.245
6.833333333333333,-0.43,-0.225
6.836111111111111,-0.415,-0.24
6.838888888888889,-0.425,-0.25
6.841666666666667,-0.43,-0.26
6.844444444444444,-0.455,-0.265
6.847222222222222,-0.445,-0.255
6.85,-0.445,-0.24
6.852777777777778,-0.43,-0.25
6.855555555555555,-0.43,-0.25
6.858333333333333,-0.44,-0.265
6.861111111111111,-0.44,-0.26
6.863888888888889,-0.435,-0.26
6.866666666666666,-0.43,-0.265
6.8694444444444445,-0.415,-0.275
6.872222222222222,-0.415,-0.27
6.875,-0.425,-0.27
6.877777777777778,-0.425,-0.27
6.8805555555555555,-0.42,-0.27
6.883333333333334,-0.405,-0.245
6.886111111111111,-0.405,-0.265
6.888888888888889,-0.415,-0.265
6.891666666666667,-0.415,-0.27
6.894444444444445,-0.425,-0.285
6.897222222222222,-0.43,-0.26
6.9,-0.405,-0.245
6.902777777777778,-0.405,-0.255
6.905555555555556,-0.405,-0.265
6.908333333333333,-0.405,-0.285
6.911111111111111,-0.43,-0.295
6.913888888888889,-0.415,-0.3
6.916666666666667,-0.41,-0.295
6.919444444444444,-0.415,-0.285
6.9222222222222225,-0.43,-0.32
6.925,-0.445,-0.325
6.927777777777778,-0.465,-0.335
6.930555555555555,-0.46,-0.335
6.933333333333334,-0.45,-0.33
6.936111111111111,-0.455,-0.35
6.938888888888889,-0.46,-0.345
6.941666666666666,-0.465,-0.365
6.944444444444445,-0.485,-0.38
6.947222222222222,-0.495,-0.375
6.95,-0.475,-0.375
6.9527777777777775,-0.49,-0.385
6.955555555555556,-0.5,-0.385
6.958333333333333,-0.495,-0.4
6.961111111111111,-0.515,-0.4
6.963888888888889,-0.5,-0.395
6.966666666666667,-0.485,-0.39
6.969444444444444,-0.49,-0.39
6.972222222222222,-0.485,-0.4
6.975,-0.5,-0.405
6.977777777777778,-0.5,-0.41
6.980555555555555,-0.49,-0.38
6.983333333333333,-0.48,-0.355
6.986111111111111,-0.46,-0.35
6.988888888888889,-0.46,-0.34
6.991666666666666,-0.47,-0.345
6.9944444444444445,-0.465,-0.335
6.997222222222222,-0.44,-0.31
7.0,-0.43,-0.285
7.002777777777778,-0.425,-0.28
7.0055555555555555,-0.41,-0.27
7.008333333333334,-0.41,-0.255
7.011111111111111,-0.4,-0.245
7.013888888888889,-0.39,-0.235
7.016666666666667,-0.38,-0.21
7.019444444444445,-0.355,-0.215
7.022222222222222,-0.35,-0.22
7.025,-0.355,-0.22
7.027777777777778,-0.35,-0.215
7.030555555555556,-0.34,-0.19
7.033333333333333,-0.33,-0.18
7.036111111111111,-0.325,-0.18
7.038888888888889,-0.305,-0.185
7.041666666666667,-0.32,-0.195
7.044444444444444,-0.315,-0.195
7.0472222222222225,-0.305,-0.19
7.05,-0.3,-0.17
7.052777777777778,-0.305,-0.17
7.055555555555555,-0.305,-0.185
7.058333333333334,-0.31,-0.185
7.061111111111111,-0.33,-0.185
7.063888888888889,-0.31,-0.18
7.066666666666666,-0.315,-0.17
7.069444444444445,-0.315,-0.19
7.072222222222222,-0.32,-0.18
7.075,-0.325,-0.195
7.0777777777777775,-0.325,-0.19
7.080555555555556,-0.325,-0.17
7.083333333333333,-0.31,-0.17
7.086111111111111,-0.31,-0.175
7.088888888888889,-0.315,-0.19
7.091666666666667,-0.325,-0.195
7.094444444444444,-0.33,-0.19
7.097222222222222,-0.325,-0.185
7.1,-0.325,-0.185
7.102777777777778,-0.315,-0.18
7.105555555555555,-0.32,-0.185
7.108333333333333,-0.33,-0.19
7.111111111111111,-0.335,-0.205
7.113888888888889,-0.33,-0.195
7.116666666666666,-0.315,-0.185
7.1194444444444445,-0.32,-0.185
7.122222222222222,-0.32,-0.185
7.125,-0.335,-0.205
7.127777777777778,-0.335,-0.205
7.1305555555555555,-0.325,-0.18
7.133333333333334,-0.325,-0.195
7.136111111111111,-0.32,-0.195
7.138888888888889,-0.32,-0.205
7.141666666666667,-0.325,-0.21
7.144444444444445,-0.35,-0.225
7.147222222222222,-0.345,-0.21
7.15,-0.345,-0.2
7.152777777777778,-0.335,-0.2
7.155555555555556,-0.345,-0.205
7.158333333333333,-0.355,-0.21
7.161111111111111,-0.355,-0.225
7.163888888888889,-0.355,-0.21
7.166666666666667,-0.345,-0.2
7.169444444444444,-0.335,-0.2
7.1722222222222225,-0.335,-0.205
7.175,-0.345,-0.21
7.177777777777778,-0.355,-0.2
7.180555555555555,-0.34,-0.195
7.183333333333334,-0.335,-0.185
7.186111111111111,-0.33,-0.205
7.188888888888889,-0.335,-0.21
7.191666666666666,-0.345,-0.22
7.194444444444445,-0.35,-0.215
7.197222222222222,-0.35,-0.205
7.2,-0.34,-0.2
7.2027777777777775,-0.335,-0.215
7.205555555555556,-0.33,-0.21
7.208333333333333,-0.36,-0.225
7.211111111111111,-0.355,-0.22
7.213888888888889,-0.345,-0.215
7.216666666666667,-0.335,-0.2
7.219444444444444,-0.345,-0.21
7.222222222222222,-0.35,-0.205
7.225,-0.36,-0.215
7.227777777777778,-0.38,-0.215
7.230555555555555,-0.37,-0.215
7.233333333333333,-0.345,-0.2
7.236111111111111,-0.345,-0.2
7.238888888888889,-0.35,-0.21
7.241666666666666,-0.355,-0.22
7.2444444444444445,-0.365,-0.21
7.247222222222222,-0.36,-0.195
7.25,-0.345,-0.2
7.252777777777778,-0.345,-0.19
7.2555555555555555,-0.35,-0.21
7.258333333333334,-0.36,-0.22
7.261111111111111,-0.36,-0.215
7.263888888888889,-0.35,-0.2
7.266666666666667,-0.355,-0.185
7.269444444444445,-0.34,-0.195
7.272222222222222,-0.345,-0.2
7.275,-0.355,-0.2
7.277777777777778,-0.355,-0.205
7.280555555555556,-0.355,-0.195
7.283333333333333,-0.34,-0.185
7.286111111111111,-0.34,-0.19
7.288888888888889,-0.345,-0.195
7.291666666666667,-0.365,-0.2
7.294444444444444,-0.37,-0.2
7.2972222222222225,-0.35,-0.2
7.3,-0.33,-0.19
7.302777777777778,-0.32,-0.2
7.305555555555555,-0.315,-0.19
7.308333333333334,-0.295,-0.2
7.311111111111111,-0.305,-0.195
7.313888888888889,-0.295,-0.18
7.316666666666666,-0.3,-0.16
7.319444444444445,-0.285,-0.18
7.322222222222222,-0.275,-0.18
7.325,-0.26,-0.185
7.3277777777777775,-0.275,-0.18
7.330555555555556,-0.265,-0.16
7.333333333333333,-0.26,-0.145
7.336111111111111,-0.25,-0.155
7.338888888888889,-0.245,-0.17
7.341666666666667,-0.255,-0.17
7.344444444444444,-0.265,-0.155
7.347222222222222,-0.26,-0.145
7.35,-0.26,-0.13
7.352777777777778,-0.25,-0.135
7.355555555555555,-0.26,-0.14
7.358333333333333,-0.28,-0.135
7.361111111111111,-0.28,-0.14
7.363888888888889,-0.275,-0.14
7.366666666666666,-0.285,-0.125
7.3694444444444445,-0.28,-0.13
7.372222222222222,-0.255,-0.15
7.375,-0.245,-0.165
7.377777777777778,-0.245,-0.165
7.3805555555555555,-0.26,-0.165
7.383333333333334,-0.285,-0.155
7.386111111111111,-0.29,-0.15
7.388888888888889,-0.3,-0.165
7.391666666666667,-0.32,-0.18
7.394444444444445,-0.335,-0.195
7.397222222222222,-0.355,-0.175
7.4,-0.35,-0.17
7.402777777777778,-0.355,-0.175
7.405555555555556,-0.355,-0.185
7.408333333333333,-0.375,-0.195
7.411111111111111,-0.385,-0.19
7.413888888888889,-0.38,-0.175
7.416666666666667,-0.36,-0.185
7.419444444444444,-0.35,-0.19
7.4222222222222225,-0.36,-0.205
7.425,-0.365,-0.215
7.427777777777778,-0.37,-0.215
7.430555555555555,-0.37,-0.195
7.433333333333334,-0.365,-0.18
7.436111111111111,-0.36,-0.19
7.438888888888889,-0.365,-0.2
7.441666666666666,-0.37,-0.2
7.444444444444445,-0.385,-0.215
7.447222222222222,-0.385,-0.2
7.45,-0.365,-0.18
7.4527777777777775,-0.36,-0.195
7.455555555555556,-0.38,-0.2
7.458333333333333,-0.385,-0.205
7.461111111111111,-0.395,-0.21
7.463888888888889,-0.395,-0.2
7.466666666666667,-0.385,-0.205
7.469444444444444,-0.38,-0.235
7.472222222222222,-0.395,-0.26
7.475,-0.425,-0.285
7.477777777777778,-0.465,-0.3
7.480555555555555,-0.5,-0.325
7.483333333333333,-0.515,-0.32
7.486111111111111,-0.53,-0.29
7.488888888888889,-0.56,-0.19
7.491666666666666,-0.585,-0.055
7.4944444444444445,-0.53,0.05
7.497222222222222,-0.41,0.15
7.5,-0.255,0.245
7.502777777777778,-0.105,0.345
7.5055555555555555,0.105,0.445
7.508333333333334,0.355,0.53
7.511111111111111,0.6,0.595
7.513888888888889,0.81,0.52
7.516666666666667,0.89,0.275
7.519444444444445,0.83,-0.085
7.522222222222222,0.58,-0.3
7.525,0.185,-0.335
7.527777777777778,-0.205,-0.285
7.530555555555556,-0.45,-0.25
7.533333333333333,-0.525,-0.245
7.536111111111111,-0.495,-0.235
7.538888888888889,-0.465,-0.215
7.541666666666667,-0.435,-0.23
7.544444444444444,-0.415,-0.23
7.5472222222222225,-0.415,-0.24
7.55,-0.415,-0.235
7.552777777777778,-0.4,-0.235
7.555555555555555,-0.395,-0.245
7.558333333333334,-0.405,-0.255
7.561111111111111,-0.425,-0.25
7.563888888888889,-0.435,-0.24
7.566666666666666,-0.415,-0.225
7.569444444444445,-0.415,-0.23
7.572222222222222,-0.415,-0.25
7.575,-0.415,-0.24
7.5777777777777775,-0.43,-0.255
7.580555555555556,-0.42,-0.23
7.583333333333333,-0.41,-0.225
7.586111111111111,-0.405,-0.225
7.588888888888889,-0.42,-0.225
7.591666666666667,-0.41,-0.23
7.594444444444444,-0.42,-0.24
7.597222222222222,-0.4,-0.225
7.6,-0.395,-0.215
7.602777777777778,-0.385,-0.215
7.605555555555555,-0.4,-0.225
7.608333333333333,-0.4,-0.235
7.611111111111111,-0.4,-0.24
7.613888888888889,-0.4,-0.225
7.616666666666666,-0.395,-0.205
7.6194444444444445,-0.4,-0.21
7.622222222222222,-0.4,-0.225
7.625,-0.4,-0.23
7.627777777777778,-0.41,-0.235
7.6305555555555555,-0.395,-0.225
7.633333333333334,-0.41,-0.215
7.636111111111111,-0.4,-0.22
7.638888888888889,-0.395,-0.23
7.641666666666667,-0.405,-0.235
7.644444444444445,-0.41,-0.23
7.647222222222222,-0.415,-0.215
7.65,-0.405,-0.215
7.652777777777778,-0.4,-0.215
7.655555555555556,-0.395,-0.225
7.658333333333333,-0.405,-0.235
7.661111111111111,-0.415,-0.235
7.663888888888889,-0.405,-0.23
7.666666666666667,-0.415,-0.215
7.669444444444444,-0.41,-0.225
7.6722222222222225,-0.405,-0.225
7.675,-0.405,-0.235
7.677777777777778,-0.41,-0.245
7.680555555555555,-0.405,-0.24
7.683333333333334,-0.4,-0.225
7.686111111111111,-0.395,-0.21
7.688888888888889,-0.405,-0.23
7.691666666666666,-0.405,-0.23
7.694444444444445,-0.4,-0.245
7.697222222222222,-0.395,-0.22
7.7,-0.39,-0.225
7.7027777777777775,-0.395,-0.235
7.705555555555556,-0.39,-0.245
7.708333333333333,-0.395,-0.25
7.711111111111111,-0.42,-0.25
7.713888888888889,-0.415,-0.24
7.716666666666667,-0.405,-0.24
7.719444444444444,-0.4,-0.245
7.722222222222222,-0.4,-0.25
7.725,-0.415,-0.27
7.727777777777778,-0.42,-0.27
7.730555555555555,-0.41,-0.265
7.733333333333333,-0.395,-0.26
7.736111111111111,-0.4,-0.28
7.738888888888889,-0.405,-0.295
7.741666666666666,-0.415,-0.295
7.7444444444444445,-0.435,-0.315
7.747222222222222,-0.415,-0.31
7.75,-0.415,-0.305
7.752777777777778,-0.4,-0.31
7.7555555555555555,-0.405,-0.325
7.758333333333334,-0.42,-0.33
7.761111111111111,-0.43,-0.35
7.763888888888889,-0.425,-0.34
7.766666666666667,-0.41,-0.335
7.769444444444445,-0.41,-0.35
7.772222222222222,-0.405,-0.35
7.775,-0.415,-0.37
7.777777777777778,-0.425,-0.365
7.780555555555556,-0.425,-0.355
7.783333333333333,-0.42,-0.335
7.786111111111111,-0.41,-0.355
7.788888888888889,-0.41,-0.365
7.791666666666667,-0.42,-0.37
7.794444444444444,-0.43,-0.36
7.7972222222222225,-0.425,-0.335
7.8,-0.42,-0.315
7.802777777777778,-0.405,-0.315
7.805555555555555,-0.415,-0.305
7.808333333333334,-0.41,-0.285
7.811111111111111,-0.41,-0.285
7.813888888888889,-0.385,-0.27
7.816666666666666,-0.37,-0.24
7.819444444444445,-0.36,-0.23
7.822222222222222,-0.35,-0.22
7.825,-0.35,-0.22
7.8277777777777775,-0.35,-0.2
7.830555555555556,-0.335,-0.18
7.833333333333333,-0.32,-0.175
7.836111111111111,-0.305,-0.18
7.838888888888889,-0.315,-0.185
7.841666666666667,-0.315,-0.19
7.844444444444444,-0.32,-0.185
7.847222222222222,-0.305,-0.18
7.85,-0.305,-0.175
7.852777777777778,-0.295,-0.17
7.855555555555555,-0.29,-0.165
7.858333333333333,-0.295,-0.175
7.861111111111111,-0.295,-0.17
7.863888888888889,-0.285,-0.165
7.866666666666666,-0.285,-0.155
7.8694444444444445,-0.27,-0.16
7.872222222222222,-0.28,-0.16
7.875,-0.28,-0.165
7.877777777777778,-0.295,-0.165
7.8805555555555555,-0.28,-0.16
7.883333333333334,-0.285,-0.145
7.886111111111111,-0.275,-0.15
7.888888888888889,-0.285,-0.16
7.891666666666667,-0.295,-0.165
7.894444444444445,-0.305,-0.175
7.897222222222222,-0.295,-0.15
7.9,-0.285,-0.14
7.902777777777778,-0.285,-0.155
7.905555555555556,-0.29,-0.16
7.908333333333333,-0.3,-0.175
7.911111111111111,-0.31,-0.175
7.913888888888889,-0.295,-0.17
7.916666666666667,-0.3,-0.16
7.919444444444444,-0.29,-0.155
7.9222222222222225,-0.285,-0.165
7.925,-0.305,-0.175
7.927777777777778,-0.31,-0.18
7.930555555555555,-0.3,-0.17
7.933333333333334,-0.295,-0.165
7.936111111111111,-0.305,-0.17
7.938888888888889,-0.3,-0.185
7.941666666666666,-0.305,-0.185
7.944444444444445,-0.32,-0.18
7.947222222222222,-0.32,-0.175
7.95,-0.31,-0.17
7.9527777777777775,-0.3,-0.18
7.955555555555556,-0.31,-0.185
7.958333333333333,-0.32,-0.2
7.961111111111111,-0.34,-0.195
7.963888888888889,-0.33,-0.185
7.966666666666667,-0.31,-0.175
7.969444444444444,-0.315,-0.18
7.972222222222222,-0.325,-0.185
7.975,-0.325,-0.205
7.977777777777778,-0.345,-0.21
7.980555555555555,-0.33,-0.19
7.983333333333333,-0.32,-0.185
7.986111111111111,-0.32,-0.19
7.988888888888889,-0.335,-0.2
7.991666666666666,-0.335,-0.205
7.9944444444444445,-0.355,-0.215
7.997222222222222,-0.34,-0.2
8.0,-0.32,-0.18
8.002777777777778,-0.315,-0.185
8.005555555555556,-0.33,-0.2
8.008333333333333,-0.34,-0.205
8.011111111111111,-0.34,-0.2
8.01388888888889,-0.35,-0.205
8.016666666666667,-0.33,-0.19
8.019444444444444,-0.33,-0.19
8.022222222222222,-0.34,-0.18
8.025,-0.35,-0.205
8.027777777777779,-0.355,-0.2
8.030555555555555,-0.345,-0.195
8.033333333333333,-0.335,-0.18
8.036111111111111,-0.335,-0.185
8.03888888888889,-0.34,-0.185
8.041666666666666,-0.34,-0.2
8.044444444444444,-0.345,-0.2
8.047222222222222,-0.335,-0.18
8.05,-0.335,-0.18
8.052777777777777,-0.325,-0.185
8.055555555555555,-0.325,-0.185
8.058333333333334,-0.335,-0.2
8.061111111111112,-0.34,-0.195
8.063888888888888,-0.34,-0.175
8.066666666666666,-0.32,-0.175
8.069444444444445,-0.315,-0.185
8.072222222222223,-0.32,-0.19
8.075,-0.335,-0.195
8.077777777777778,-0.335,-0.205
8.080555555555556,-0.32,-0.185
8.083333333333334,-0.325,-0.16
8.08611111111111,-0.315,-0.17
8.088888888888889,-0.32,-0.19
8.091666666666667,-0.32,-0.19
8.094444444444445,-0.345,-0.19
8.097222222222221,-0.335,-0.18
8.1,-0.32,-0.17
8.102777777777778,-0.31,-0.16
8.105555555555556,-0.32,-0.17
8.108333333333333,-0.32,-0.185
8.11111111111111,-0.34,-0.195
8.113888888888889,-0.33,-0.18
8.116666666666667,-0.32,-0.175
8.119444444444444,-0.31,-0.17
8.122222222222222,-0.31,-0.17
8.125,-0.31,-0.195
8.127777777777778,-0.295,-0.2
8.130555555555556,-0.28,-0.18
8.133333333333333,-0.255,-0.17
8.136111111111111,-0.25,-0.175
8.13888888888889,-0.25,-0.18
8.141666666666667,-0.255,-0.18
8.144444444444444,-0.26,-0.17
8.147222222222222,-0.24,-0.155
8.15,-0.22,-0.135
8.152777777777779,-0.23,-0.145
8.155555555555555,-0.23,-0.16
8.158333333333333,-0.215,-0.16
8.161111111111111,-0.22,-0.16
8.16388888888889,-0.225,-0.14
8.166666666666666,-0.23,-0.12
8.169444444444444,-0.23,-0.12
8.172222222222222,-0.235,-0.13
8.175,-0.245,-0.13
8.177777777777777,-0.255,-0.125
8.180555555555555,-0.24,-0.125
8.183333333333334,-0.235,-0.115
8.186111111111112,-0.245,-0.11
8.188888888888888,-0.235,-0.13
8.191666666666666,-0.23,-0.145
8.194444444444445,-0.22,-0.155
8.197222222222223,-0.195,-0.14
8.2,-0.22,-0.14
8.202777777777778,-0.245,-0.145
8.205555555555556,-0.26,-0.15
8.208333333333334,-0.27,-0.16
8.21111111111111,-0.29,-0.165
8.213888888888889,-0.3,-0.16
8.216666666666667,-0.305,-0.15
8.219444444444445,-0.305,-0.165
8.222222222222221,-0.32,-0.185
8.225,-0.33,-0.18
8.227777777777778,-0.35,-0.185
8.230555555555556,-0.35,-0.17
8.233333333333333,-0.335,-0.155
8.23611111111111,-0.335,-0.175
8.238888888888889,-0.335,-0.19
8.241666666666667,-0.34,-0.195
8.244444444444444,-0.35,-0.195
8.247222222222222,-0.35,-0.18
8.25,-0.345,-0.175
8.252777777777778,-0.335,-0.18
8.255555555555556,-0.345,-0.18
8.258333333333333,-0.355,-0.19
8.261111111111111,-0.37,-0.17
8.26388888888889,-0.35,-0.18
8.266666666666667,-0.345,-0.175
8.269444444444444,-0.335,-0.18
8.272222222222222,-0.335,-0.185
8.275,-0.335,-0.2
8.277777777777779,-0.355,-0.195
8.280555555555555,-0.355,-0.2
8.283333333333333,-0.345,-0.225
8.286111111111111,-0.355,-0.255
8.28888888888889,-0.395,-0.295
8.291666666666666,-0.45,-0.33
8.294444444444444,-0.48,-0.34
8.297222222222222,-0.505,-0.305
8.3,-0.525,-0.195
8.302777777777777,-0.545,-0.065
8.305555555555555,-0.5,0.07
8.308333333333334,-0.395,0.18
8.311111111111112,-0.255,0.285
8.313888888888888,-0.07,0.415
8.316666666666666,0.145,0.555
8.319444444444445,0.425,0.67
8.322222222222223,0.685,0.7
8.325,0.875,0.555
8.327777777777778,0.925,0.21
8.330555555555556,0.795,-0.125
8.333333333333334,0.47,-0.265
8.33611111111111,0.02,-0.24
8.338888888888889,-0.325,-0.215
8.341666666666667,-0.47,-0.215
8.344444444444445,-0.485,-0.23
8.347222222222221,-0.41,-0.22
8.35,-0.365,-0.21
8.352777777777778,-0.355,-0.235
8.355555555555556,-0.365,-0.235
8.358333333333333,-0.38,-0.235
8.36111111111111,-0.385,-0.23
8.363888888888889,-0.38,-0.225
8.366666666666667,-0.37,-0.21
8.369444444444444,-0.37,-0.215
8.372222222222222,-0.375,-0.225
8.375,-0.385,-0.24
8.377777777777778,-0.395,-0.25
8.380555555555556,-0.385,-0.23
8.383333333333333,-0.38,-0.23
8.386111111111111,-0.385,-0.225
8.38888888888889,-0.375,-0.23
8.391666666666667,-0.39,-0.24
8.394444444444444,-0.405,-0.235
8.397222222222222,-0.405,-0.23
8.4,-0.39,-0.225
8.402777777777779,-0.385,-0.23
8.405555555555555,-0.385,-0.245
8.408333333333333,-0.39,-0.235
8.411111111111111,-0.41,-0.235
8.41388888888889,-0.4,-0.22
8.416666666666666,-0.39,-0.22
8.419444444444444,-0.385,-0.225
8.422222222222222,-0.385,-0.23
8.425,-0.395,-0.245
8.427777777777777,-0.39,-0.225
8.430555555555555,-0.395,-0.22
8.433333333333334,-0.38,-0.21
8.436111111111112,-0.375,-0.21
8.438888888888888,-0.38,-0.22
8.441666666666666,-0.385,-0.24
8.444444444444445,-0.4,-0.235
8.447222222222223,-0.385,-0.225
8.45,-0.38,-0.21
8.452777777777778,-0.375,-0.2
8.455555555555556,-0.38,-0.225
8.458333333333334,-0.395,-0.225
8.46111111111111,-0.395,-0.225
8.463888888888889,-0.385,-0.225
8.466666666666667,-0.375,-0.215
8.469444444444445,-0.37,-0.215
8.472222222222221,-0.365,-0.235
8.475,-0.385,-0.24
8.477777777777778,-0.395,-0.24
8.480555555555556,-0.385,-0.235
8.483333333333333,-0.385,-0.22
8.48611111111111,-0.37,-0.225
8.488888888888889,-0.375,-0.235
8.491666666666667,-0.37,-0.245
8.494444444444444,-0.375,-0.245
8.497222222222222,-0.375,-0.23
8.5,-0.37,-0.225
8.502777777777778,-0.355,-0.22
8.505555555555556,-0.365,-0.245
8.508333333333333,-0.38,-0.25
8.511111111111111,-0.375,-0.255
8.51388888888889,-0.37,-0.255
8.516666666666667,-0.38,-0.24
8.519444444444444,-0.365,-0.25
8.522222222222222,-0.37,-0.26
8.525,-0.375,-0.275
8.527777777777779,-0.39,-0.285
8.530555555555555,-0.38,-0.275
8.533333333333333,-0.375,-0.28
8.536111111111111,-0.38,-0.29
8.53888888888889,-0.37,-0.3
8.541666666666666,-0.375,-0.305
8.544444444444444,-0.38,-0.315
8.547222222222222,-0.385,-0.31
8.55,-0.385,-0.315
8.552777777777777,-0.37,-0.325
8.555555555555555,-0.375,-0.335
8.558333333333334,-0.375,-0.35
8.561111111111112,-0.38,-0.345
8.563888888888888,-0.38,-0.34
8.566666666666666,-0.38,-0.335
8.569444444444445,-0.38,-0.35
8.572222222222223,-0.375,-0.36
8.575,-0.39,-0.37
8.577777777777778,-0.395,-0.365
8.580555555555556,-0.385,-0.36
8.583333333333334,-0.385,-0.345
8.58611111111111,-0.375,-0.34
8.588888888888889,-0.375,-0.35
8.591666666666667,-0.385,-0.355
8.594444444444445,-0.385,-0.345
8.597222222222221,-0.39,-0.325
8.6,-0.37,-0.305
8.602777777777778,-0.365,-0.3
8.605555555555556,-0.365,-0.285
8.608333333333333,-0.375,-0.285
8.61111111111111,-0.385,-0.28
8.613888888888889,-0.35,-0.265
8.616666666666667,-0.345,-0.23
8.619444444444444,-0.325,-0.235
8.622222222222222,-0.325,-0.24
8.625,-0.33,-0.245
8.627777777777778,-0.325,-0.225
8.630555555555556,-0.325,-0.215
8.633333333333333,-0.315,-0.195
8.636111111111111,-0.315,-0.18
8.63888888888889,-0.315,-0.18
8.641666666666667,-0.3,-0.19
8.644444444444444,-0.3,-0.18
8.647222222222222,-0.285,-0.165
8.65,-0.27,-0.14
8.652777777777779,-0.265,-0.155
8.655555555555555,-0.26,-0.165
8.658333333333333,-0.275,-0.16
8.661111111111111,-0.285,-0.155
8.66388888888889,-0.265,-0.145
8.666666666666666,-0.255,-0.135
8.669444444444444,-0.25,-0.15
8.672222222222222,-0.27,-0.165
8.675,-0.28,-0.17
8.677777777777777,-0.285,-0.15
8.680555555555555,-0.285,-0.145
8.683333333333334,-0.28,-0.145
8.686111111111112,-0.27,-0.145
8.688888888888888,-0.27,-0.16
8.691666666666666,-0.27,-0.17
8.694444444444445,-0.285,-0.17
8.697222222222223,-0.28,-0.155
8.7,-0.275,-0.135
8.702777777777778,-0.27,-0.145
8.705555555555556,-0.265,-0.155
8.708333333333334,-0.275,-0.165
8.71111111111111,-0.29,-0.18
8.713888888888889,-0.285,-0.165
8.716666666666667,-0.285,-0.15
8.719444444444445,-0.275,-0.16
8.722222222222221,-0.27,-0.15
8.725,-0.28,-0.17
8.727777777777778,-0.295,-0.175
8.730555555555556,-0.28,-0.165
8.733333333333333,-0.27,-0.155
8.73611111111111,-0.27,-0.165
8.738888888888889,-0.275,-0.175
8.741666666666667,-0.285,-0.18
8.744444444444444,-0.3,-0.175
8.747222222222222,-0.295,-0.165
8.75,-0.29,-0.16
8.752777777777778,-0.295,-0.165
8.755555555555556,-0.3,-0.185
8.758333333333333,-0.29,-0.195
8.761111111111111,-0.305,-0.185
8.76388888888889,-0.295,-0.185
8.766666666666667,-0.29,-0.17
8.769444444444444,-0.295,-0.175
8.772222222222222,-0.29,-0.17
8.775,-0.31,-0.185
8.777777777777779,-0.32,-0.18
8.780555555555555,-0.315,-0.185
8.783333333333333,-0.315,-0.18
8.786111111111111,-0.3,-0.175
8.78888888888889,-0.305,-0.185
8.791666666666666,-0.315,-0.19
8.794444444444444,-0.33,-0.185
8.797222222222222,-0.32,-0.17
8.8,-0.305,-0.16
8.802777777777777,-0.315,-0.185
8.805555555555555,-0.305,-0.185
8.808333333333334,-0.315,-0.19
8.811111111111112,-0.325,-0.2
8.813888888888888,-0.31,-0.195
8.816666666666666,-0.295,-0.165
8.819444444444445,-0.3,-0.175
8.822222222222223,-0.305,-0.18
8.825,-0.31,-0.19
8.827777777777778,-0.325,-0.195
8.830555555555556,-0.315,-0.19
8.833333333333334,-0.315,-0.16
8.83611111111111,-0.305,-0.175
8.838888888888889,-0.305,-0.165
8.841666666666667,-0.325,-0.185
8.844444444444445,-0.32,-0.18
8.847222222222221,-0.32,-0.18
8.85,-0.31,-0.155
8.852777777777778,-0.305,-0.17
8.855555555555556,-0.32,-0.18
8.858333333333333,-0.32,-0.18
8.86111111111111,-0.32,-0.185
8.863888888888889,-0.31,-0.165
8.866666666666667,-0.305,-0.15
8.869444444444444,-0.29,-0.16
8.872222222222222,-0.285,-0.165
8.875,-0.29,-0.18
8.877777777777778,-0.305,-0.18
8.880555555555556,-0.31,-0.165
8.883333333333333,-0.3,-0.15
8.886111111111111,-0.3,-0.155
8.88888888888889,-0.31,-0.155
8.891666666666667,-0.315,-0.17
8.894444444444444,-0.315,-0.175
8.897222222222222,-0.31,-0.165
8.9,-0.295,-0.155
8.902777777777779,-0.3,-0.15
8.905555555555555,-0.295,-0.155
8.908333333333333,-0.315,-0.165
8.911111111111111,-0.31,-0.165
8.91388888888889,-0.29,-0.16
8.916666666666666,-0.265,-0.16
8.919444444444444,-0.24,-0.165
8.922222222222222,-0.255,-0.17
8.925,-0.24,-0.175
8.927777777777777,-0.25,-0.16
8.930555555555555,-0.225,-0.135
8.933333333333334,-0.225,-0.14
8.936111111111112,-0.215,-0.145
8.938888888888888,-0.21,-0.14
8.941666666666666,-0.2,-0.145
8.944444444444445,-0.195,-0.135
8.947222222222223,-0.195,-0.125
8.95,-0.18,-0.115
8.952777777777778,-0.175,-0.115
8.955555555555556,-0.18,-0.125
8.958333333333334,-0.205,-0.13
8.96111111111111,-0.215,-0.105
8.963888888888889,-0.21,-0.095
8.966666666666667,-0.21,-0.095
8.969444444444445,-0.21,-0.095
8.972222222222221,-0.21,-0.095
8.975,-0.215,-0.095
8.977777777777778,-0.225,-0.115
8.980555555555556,-0.21,-0.12
8.983333333333333,-0.18,-0.12
8.98611111111111,-0.17,-0.13
8.988888888888889,-0.185,-0.135
8.991666666666667,-0.24,-0.125
8.994444444444444,-0.255,-0.14
8.997222222222222,-0.255,-0.135
9.0,-0.27,-0.12
9.002777777777778,-0.275,-0.15
9.005555555555556,-0.285,-0.15
9.008333333333333,-0.3,-0.155
9.011111111111111,-0.3,-0.16
9.01388888888889,-0.315,-0.145
9.016666666666667,-0.305,-0.14
9.019444444444444,-0.3,-0.145
9.022222222222222,-0.295,-0.145
9.025,-0.3,-0.16
9.027777777777779,-0.315,-0.165
9.030555555555555,-0.31,-0.155
9.033333333333333,-0.31,-0.145
9.036111111111111,-0.3,-0.155
9.03888888888889,-0.3,-0.155
9.041666666666666,-0.305,-0.17
9.044444444444444,-0.315,-0.165
9.047222222222222,-0.325,-0.16
9.05,-0.32,-0.155
9.052777777777777,-0.32,-0.16
9.055555555555555,-0.32,-0.17
9.058333333333334,-0.325,-0.17
9.061111111111112,-0.34,-0.165
9.063888888888888,-0.335,-0.165
9.066666666666666,-0.325,-0.145
9.069444444444445,-0.315,-0.17
9.072222222222223,-0.32,-0.19
9.075,-0.345,-0.225
9.077777777777778,-0.37,-0.25
9.080555555555556,-0.395,-0.27
9.083333333333334,-0.425,-0.28
9.08611111111111,-0.445,-0.305
9.088888888888889,-0.465,-0.29
9.091666666666667,-0.51,-0.2
9.094444444444445,-0.53,-0.075
9.097222222222221,-0.485,0.04
9.1,-0.37,0.135
9.102777777777778,-0.235,0.215
9.105555555555556,-0.09,0.32
9.108333333333333,0.105,0.435
9.11111111111111,0.375,0.54
9.113888888888889,0.655,0.58
9.116666666666667,0.82,0.465
9.119444444444444,0.865,0.145
9.122222222222222,0.735,-0.155
9.125,0.45,-0.285
9.127777777777778,0.06,-0.25
9.130555555555556,-0.27,-0.2
9.133333333333333,-0.43,-0.18
9.136111111111111,-0.46,-0.19
9.13888888888889,-0.415,-0.19
9.141666666666667,-0.385,-0.185
9.144444444444444,-0.365,-0.195
9.147222222222222,-0.355,-0.185
9.15,-0.355,-0.175
9.152777777777779,-0.345,-0.19
9.155555555555555,-0.35,-0.195
9.158333333333333,-0.35,-0.205
9.161111111111111,-0.36,-0.205
9.16388888888889,-0.345,-0.185
9.166666666666666,-0.34,-0.165
9.169444444444444,-0.34,-0.185
9.172222222222222,-0.335,-0.19
9.175,-0.335,-0.21
9.177777777777777,-0.355,-0.21
9.180555555555555,-0.345,-0.2
9.183333333333334,-0.34,-0.19
9.186111111111112,-0.335,-0.185
9.188888888888888,-0.34,-0.195
9.191666666666666,-0.35,-0.21
9.194444444444445,-0.365,-0.21
9.197222222222223,-0.36,-0.19
9.2,-0.365,-0.18
9.202777777777778,-0.35,-0.19
9.205555555555556,-0.345,-0.195
9.208333333333334,-0.365,-0.215
9.21111111111111,-0.36,-0.215
9.213888888888889,-0.35,-0.195
9.216666666666667,-0.355,-0.185
9.219444444444445,-0.35,-0.18
9.222222222222221,-0.355,-0.185
9.225,-0.35,-0.2
9.227777777777778,-0.36,-0.205
9.230555555555556,-0.335,-0.19
9.233333333333333,-0.335,-0.18
9.23611111111111,-0.33,-0.185
9.238888888888889,-0.34,-0.195
9.241666666666667,-0.35,-0.195
9.244444444444444,-0.35,-0.195
9.247222222222222,-0.345,-0.19
9.25,-0.335,-0.185
9.252777777777778,-0.345,-0.195
9.255555555555556,-0.355,-0.195
9.258333333333333,-0.355,-0.205
9.261111111111111,-0.37,-0.2
9.26388888888889,-0.355,-0.19
9.266666666666667,-0.35,-0.185
9.269444444444444,-0.345,-0.195
9.272222222222222,-0.365,-0.21
9.275,-0.365,-0.215
9.277777777777779,-0.37,-0.215
9.280555555555555,-0.365,-0.205
9.283333333333333,-0.355,-0.19
9.286111111111111,-0.345,-0.19
9.28888888888889,-0.345,-0.205
9.291666666666666,-0.345,-0.22
9.294444444444444,-0.34,-0.215
9.297222222222222,-0.335,-0.205
9.3,-0.325,-0.21
9.302777777777777,-0.335,-0.22
9.305555555555555,-0.345,-0.23
9.308333333333334,-0.35,-0.24
9.311111111111112,-0.35,-0.255
9.313888888888888,-0.355,-0.24
9.316666666666666,-0.355,-0.225
9.319444444444445,-0.36,-0.23
9.322222222222223,-0.35,-0.25
9.325,-0.36,-0.25
9.327777777777778,-0.365,-0.26
9.330555555555556,-0.345,-0.26
9.333333333333334,-0.345,-0.255
9.33611111111111,-0.33,-0.26
9.338888888888889,-0.35,-0.285
9.341666666666667,-0.345,-0.295
9.344444444444445,-0.355,-0.3
9.347222222222221,-0.35,-0.285
9.35,-0.34,-0.28
9.352777777777778,-0.335,-0.29
9.355555555555556,-0.35,-0.305
9.358333333333333,-0.365,-0.315
9.36111111111111,-0.38,-0.32
9.363888888888889,-0.385,-0.31
9.366666666666667,-0.355,-0.305
9.369444444444444,-0.36,-0.31
9.372222222222222,-0.355,-0.32
9.375,-0.37,-0.325
9.377777777777778,-0.385,-0.335
9.380555555555556,-0.37,-0.32
9.383333333333333,-0.37,-0.3
9.386111111111111,-0.35,-0.3
9.38888888888889,-0.345,-0.3
9.391666666666667,-0.365,-0.285
9.394444444444444,-0.365,-0.28
9.397222222222222,-0.36,-0.26
9.4,-0.345,-0.24
9.402777777777779,-0.33,-0.235
9.405555555555555,-0.33,-0.225
9.408333333333333,-0.33,-0.23
9.411111111111111,-0.335,-0.225
9.41388888888889,-0.315,-0.19
9.416666666666666,-0.31,-0.18
9.419444444444444,-0.285,-0.185
9.422222222222222,-0.29,-0.18
9.425,-0.29,-0.195
9.427777777777777,-0.3,-0.18
9.430555555555555,-0.28,-0.17
9.433333333333334,-0.275,-0.16
9.436111111111112,-0.26,-0.17
9.438888888888888,-0.26,-0.17
9.441666666666666,-0.27,-0.18
9.444444444444445,-0.265,-0.18
9.447222222222223,-0.255,-0.17
9.45,-0.25,-0.155
9.452777777777778,-0.245,-0.155
9.455555555555556,-0.245,-0.16
9.458333333333334,-0.255,-0.18
9.46111111111111,-0.265,-0.175
9.463888888888889,-0.26,-0.165
9.466666666666667,-0.255,-0.16
9.469444444444445,-0.24,-0.17
9.472222222222221,-0.25,-0.175
9.475,-0.255,-0.19
9.477777777777778,-0.275,-0.19
9.480555555555556,-0.275,-0.175
9.483333333333333,-0.265,-0.165
9.48611111111111,-0.27,-0.175
9.488888888888889,-0.275,-0.18
9.491666666666667,-0.28,-0.185
9.494444444444444,-0.29,-0.185
9.497222222222222,-0.28,-0.185
9.5,-0.275,-0.165
9.502777777777778,-0.27,-0.185
9.505555555555556,-0.27,-0.185
9.508333333333333,-0.28,-0.205
9.511111111111111,-0.29,-0.21
9.51388888888889,-0.28,-0.195
9.516666666666667,-0.285,-0.17
9.519444444444444,-0.275,-0.18
9.522222222222222,-0.29,-0.185
9.525,-0.28,-0.19
9.527777777777779,-0.29,-0.2
9.530555555555555,-0.28,-0.2
9.533333333333333,-0.285,-0.195
9.536111111111111,-0.275,-0.2
9.53888888888889,-0.28,-0.205
9.541666666666666,-0.295,-0.21
9.544444444444444,-0.305,-0.215
9.547222222222222,-0.3,-0.205
9.55,-0.3,-0.205
9.552777777777777,-0.305,-0.22
9.555555555555555,-0.315,-0.215
9.558333333333334,-0.32,-0.225
9.561111111111112,-0.31,-0.215
9.563888888888888,-0.31,-0.21
9.566666666666666,-0.3,-0.19
9.569444444444445,-0.31,-0.205
9.572222222222223,-0.31,-0.215
9.575,-0.32,-0.22
9.577777777777778,-0.325,-0.225
9.580555555555556,-0.31,-0.21
9.583333333333334,-0.32,-0.2
9.58611111111111,-0.31,-0.205
9.588888888888889,-0.31,-0.215
9.591666666666667,-0.315,-0.22
9.594444444444445,-0.325,-0.225
9.597222222222221,-0.315,-0.215
9.6,-0.305,-0.205
9.602777777777778,-0.315,-0.195
9.605555555555556,-0.31,-0.215
9.608333333333333,-0.32,-0.23
9.61111111111111,-0.325,-0.235
9.613888888888889,-0.325,-0.22
9.616666666666667,-0.32,-0.205
9.619444444444444,-0.305,-0.22
9.622222222222222,-0.305,-0.23
9.625,-0.3,-0.24
9.627777777777778,-0.315,-0.235
9.630555555555556,-0.3,-0.215
9.633333333333333,-0.31,-0.21
9.636111111111111,-0.315,-0.205
9.63888888888889,-0.305,-0.205
9.641666666666667,-0.31,-0.21
9.644444444444444,-0.32,-0.215
9.647222222222222,-0.31,-0.22
9.65,-0.3,-0.205
9.652777777777779,-0.295,-0.22
9.655555555555555,-0.3,-0.23
9.658333333333333,-0.315,-0.225
9.661111111111111,-0.325,-0.225
9.66388888888889,-0.325,-0.195
9.666666666666666,-0.305,-0.195
9.669444444444444,-0.31,-0.22
9.672222222222222,-0.29,-0.23
9.675,-0.315,-0.25
9.677777777777777,-0.325,-0.24
9.680555555555555,-0.32,-0.225
9.683333333333334,-0.29,-0.21
9.686111111111112,-0.28,-0.21
9.688888888888888,-0.26,-0.23
9.691666666666666,-0.26,-0.235
9.694444444444445,-0.265,-0.24
9.697222222222223,-0.26,-0.21
9.7,-0.25,-0.195
9.702777777777778,-0.23,-0.195
9.705555555555556,-0.22,-0.19
9.708333333333334,-0.22,-0.2
9.71111111111111,-0.235,-0.195
9.713888888888889,-0.22,-0.18
9.716666666666667,-0.205,-0.18
9.719444444444445,-0.205,-0.19
9.722222222222221,-0.21,-0.19
9.725,-0.21,-0.18
9.727777777777778,-0.23,-0.185
9.730555555555556,-0.24,-0.165
9.733333333333333,-0.23,-0.165
9.73611111111111,-0.225,-0.175
9.738888888888889,-0.235,-0.185
9.741666666666667,-0.25,-0.2
9.744444444444444,-0.265,-0.195
9.747222222222222,-0.26,-0.185
9.75,-0.245,-0.18
9.752777777777778,-0.215,-0.195
9.755555555555556,-0.215,-0.195
9.758333333333333,-0.245,-0.215
9.761111111111111,-0.28,-0.2
9.76388888888889,-0.275,-0.21
9.766666666666667,-0.275,-0.195
9.769444444444444,-0.295,-0.225
9.772222222222222,-0.31,-0.235
9.775,-0.325,-0.245
9.777777777777779,-0.34,-0.245
9.780555555555555,-0.34,-0.22
9.783333333333333,-0.325,-0.23
9.786111111111111,-0.315,-0.22
9.78888888888889,-0.31,-0.225
9.791666666666666,-0.315,-0.24
9.794444444444444,-0.33,-0.225
9.797222222222222,-0.33,-0.21
9.8,-0.325,-0.22
9.802777777777777,-0.325,-0.23
9.805555555555555,-0.335,-0.23
9.808333333333334,-0.345,-0.24
9.811111111111112,-0.35,-0.245
9.813888888888888,-0.35,-0.245
9.816666666666666,-0.35,-0.24
9.819444444444445,-0.345,-0.235
9.822222222222223,-0.35,-0.24
9.825,-0.365,-0.255
9.827777777777778,-0.36,-0.255
9.830555555555556,-0.35,-0.25
9.833333333333334,-0.355,-0.23
9.83611111111111,-0.345,-0.24
9.838888888888889,-0.345,-0.25
9.841666666666667,-0.35,-0.265
9.844444444444445,-0.365,-0.29
9.847222222222221,-0.38,-0.31
9.85,-0.405,-0.305
9.852777777777778,-0.425,-0.335
9.855555555555556,-0.44,-0.355
9.858333333333333,-0.47,-0.335
9.86111111111111,-0.52,-0.27
9.863888888888889,-0.54,-0.16
9.866666666666667,-0.49,-0.05
9.869444444444444,-0.39,0.01
9.872222222222222,-0.26,0.065
9.875,-0.115,0.135
9.877777777777778,0.085,0.24
9.880555555555556,0.36,0.355
9.883333333333333,0.615,0.395
9.886111111111111,0.78,0.255
9.88888888888889,0.835,-0.015
9.891666666666667,0.72,-0.295
9.894444444444444,0.41,-0.405
9.897222222222222,0.03,-0.39
9.9,-0.255,-0.34
9.902777777777779,-0.415,-0.305
9.905555555555555,-0.47,-0.31
9.908333333333333,-0.465,-0.295
9.911111111111111,-0.435,-0.295
9.91388888888889,-0.395,-0.28
9.916666666666666,-0.375,-0.27
9.919444444444444,-0.37,-0.265
9.922222222222222,-0.375,-0.285
9.925,-0.375,-0.29
9.927777777777777,-0.39,-0.29
9.930555555555555,-0.4,-0.29
9.933333333333334,-0.38,-0.285
9.936111111111112,-0.385,-0.29
9.938888888888888,-0.385,-0.29
9.941666666666666,-0.385,-0.285
9.944444444444445,-0.385,-0.285
9.947222222222223,-0.37,-0.285
9.95,-0.37,-0.265
9.952777777777778,-0.36,-0.265
9.955555555555556,-0.38,-0.275
9.958333333333334,-0.38,-0.285
9.96111111111111,-0.385,-0.28
9.963888888888889,-0.37,-0.27
9.966666666666667,-0.37,-0.27
9.969444444444445,-0.365,-0.275
9.972222222222221,-0.375,-0.27
9.975,-0.385,-0.285
9.977777777777778,-0.39,-0.3
9.980555555555556,-0.39,-0.28
9.983333333333333,-0.385,-0.275
9.98611111111111,-0.385,-0.285
9.988888888888889,-0.395,-0.285
9.991666666666667,-0.39,-0.295
9.994444444444444,-0.4,-0.29
9.997222222222222,-0.405,-0.285
